"20-30mM-1_CF0mM - RawData"
"Wavelength nm."	"Abs."
300.00	0.0634
301.00	0.0634
302.00	0.0633
303.00	0.0630
304.00	0.0621
305.00	0.0616
306.00	0.0612
307.00	0.0611
308.00	0.0612
309.00	0.0613
310.00	0.0610
311.00	0.0603
312.00	0.0601
313.00	0.0597
314.00	0.0594
315.00	0.0596
316.00	0.0599
317.00	0.0597
318.00	0.0597
319.00	0.0595
320.00	0.0595
321.00	0.0595
322.00	0.0598
323.00	0.0601
324.00	0.0604
325.00	0.0606
326.00	0.0605
327.00	0.0605
328.00	0.0605
329.00	0.0604
330.00	0.0604
331.00	0.0601
332.00	0.0595
333.00	0.0597
334.00	0.0601
335.00	0.0606
336.00	0.0617
337.00	0.0634
338.00	0.0644
339.00	0.0658
340.00	0.0665
341.00	0.0670
342.00	0.0671
343.00	0.0673
344.00	0.0671
345.00	0.0676
346.00	0.0683
347.00	0.0691
348.00	0.0696
349.00	0.0702
350.00	0.0709
351.00	0.0714
352.00	0.0720
353.00	0.0726
354.00	0.0732
355.00	0.0737
356.00	0.0744
357.00	0.0749
358.00	0.0756
359.00	0.0762
360.00	0.0767
361.00	0.0770
362.00	0.0770
363.00	0.0779
364.00	0.0786
365.00	0.0797
366.00	0.0813
367.00	0.0835
368.00	0.0850
369.00	0.0857
370.00	0.0861
371.00	0.0862
372.00	0.0863
373.00	0.0861
374.00	0.0871
375.00	0.0880
376.00	0.0889
377.00	0.0896
378.00	0.0905
379.00	0.0911
380.00	0.0919
381.00	0.0927
382.00	0.0933
383.00	0.0942
384.00	0.0953
385.00	0.0964
386.00	0.0977
387.00	0.0992
388.00	0.1003
389.00	0.1013
390.00	0.1024
391.00	0.1034
392.00	0.1047
393.00	0.1059
394.00	0.1071
395.00	0.1085
396.00	0.1098
397.00	0.1110
398.00	0.1123
399.00	0.1133
400.00	0.1145
401.00	0.1159
402.00	0.1172
403.00	0.1187
404.00	0.1202
405.00	0.1216
406.00	0.1230
407.00	0.1242
408.00	0.1255
409.00	0.1268
410.00	0.1282
411.00	0.1295
412.00	0.1308
413.00	0.1323
414.00	0.1341
415.00	0.1356
416.00	0.1373
417.00	0.1391
418.00	0.1408
419.00	0.1422
420.00	0.1437
421.00	0.1452
422.00	0.1470
423.00	0.1488
424.00	0.1505
425.00	0.1521
426.00	0.1543
427.00	0.1565
428.00	0.1586
429.00	0.1605
430.00	0.1627
431.00	0.1647
432.00	0.1661
433.00	0.1678
434.00	0.1700
435.00	0.1722
436.00	0.1743
437.00	0.1766
438.00	0.1789
439.00	0.1812
440.00	0.1836
441.00	0.1858
442.00	0.1880
443.00	0.1904
444.00	0.1929
445.00	0.1954
446.00	0.1981
447.00	0.2008
448.00	0.2033
449.00	0.2058
450.00	0.2085
451.00	0.2112
452.00	0.2140
453.00	0.2169
454.00	0.2200
455.00	0.2230
456.00	0.2259
457.00	0.2288
458.00	0.2318
459.00	0.2346
460.00	0.2376
461.00	0.2407
462.00	0.2439
463.00	0.2467
464.00	0.2497
465.00	0.2526
466.00	0.2554
467.00	0.2582
468.00	0.2612
469.00	0.2640
470.00	0.2667
471.00	0.2693
472.00	0.2720
473.00	0.2750
474.00	0.2779
475.00	0.2808
476.00	0.2841
477.00	0.2874
478.00	0.2903
479.00	0.2935
480.00	0.2964
481.00	0.2994
482.00	0.3022
483.00	0.3050
484.00	0.3077
485.00	0.3105
486.00	0.3132
487.00	0.3159
488.00	0.3184
489.00	0.3210
490.00	0.3236
491.00	0.3260
492.00	0.3284
493.00	0.3308
494.00	0.3330
495.00	0.3353
496.00	0.3376
497.00	0.3399
498.00	0.3422
499.00	0.3445
500.00	0.3467
501.00	0.3489
502.00	0.3510
503.00	0.3531
504.00	0.3552
505.00	0.3572
506.00	0.3591
507.00	0.3611
508.00	0.3629
509.00	0.3647
510.00	0.3663
511.00	0.3680
512.00	0.3696
513.00	0.3709
514.00	0.3721
515.00	0.3734
516.00	0.3743
517.00	0.3748
518.00	0.3753
519.00	0.3761
520.00	0.3767
521.00	0.3770
522.00	0.3776
523.00	0.3779
524.00	0.3775
525.00	0.3768
526.00	0.3763
527.00	0.3758
528.00	0.3755
529.00	0.3753
530.00	0.3754
531.00	0.3758
532.00	0.3754
533.00	0.3749
534.00	0.3742
535.00	0.3737
536.00	0.3725
537.00	0.3721
538.00	0.3718
539.00	0.3717
540.00	0.3712
541.00	0.3709
542.00	0.3707
543.00	0.3705
544.00	0.3703
545.00	0.3700
546.00	0.3698
547.00	0.3694
548.00	0.3689
549.00	0.3682
550.00	0.3676
551.00	0.3668
552.00	0.3659
553.00	0.3650
554.00	0.3638
555.00	0.3625
556.00	0.3611
557.00	0.3592
558.00	0.3572
559.00	0.3552
560.00	0.3528
561.00	0.3502
562.00	0.3478
563.00	0.3453
564.00	0.3425
565.00	0.3396
566.00	0.3365
567.00	0.3330
568.00	0.3293
569.00	0.3257
570.00	0.3224
571.00	0.3191
572.00	0.3157
573.00	0.3122
574.00	0.3087
575.00	0.3051
576.00	0.3013
577.00	0.2979
578.00	0.2947
579.00	0.2917
580.00	0.2887
581.00	0.2860
582.00	0.2834
583.00	0.2808
584.00	0.2781
585.00	0.2756
586.00	0.2735
587.00	0.2714
588.00	0.2695
589.00	0.2679
590.00	0.2662
591.00	0.2646
592.00	0.2631
593.00	0.2616
594.00	0.2601
595.00	0.2587
596.00	0.2573
597.00	0.2560
598.00	0.2549
599.00	0.2538
600.00	0.2524
601.00	0.2511
602.00	0.2497
603.00	0.2481
604.00	0.2461
605.00	0.2441
606.00	0.2417
607.00	0.2393
608.00	0.2365
609.00	0.2338
610.00	0.2309
611.00	0.2279
612.00	0.2246
613.00	0.2208
614.00	0.2168
615.00	0.2128
616.00	0.2089
617.00	0.2048
618.00	0.2006
619.00	0.1963
620.00	0.1920
621.00	0.1873
622.00	0.1824
623.00	0.1782
624.00	0.1740
625.00	0.1695
626.00	0.1649
627.00	0.1606
628.00	0.1560
629.00	0.1518
630.00	0.1474
631.00	0.1433
632.00	0.1389
633.00	0.1347
634.00	0.1305
635.00	0.1270
636.00	0.1237
637.00	0.1205
638.00	0.1172
639.00	0.1140
640.00	0.1108
641.00	0.1076
642.00	0.1048
643.00	0.1023
644.00	0.0999
645.00	0.0975
646.00	0.0954
647.00	0.0934
648.00	0.0915
649.00	0.0898
650.00	0.0884
651.00	0.0867
652.00	0.0850
653.00	0.0834
654.00	0.0817
655.00	0.0800
656.00	0.0783
657.00	0.0771
658.00	0.0759
659.00	0.0751
660.00	0.0741
661.00	0.0734
662.00	0.0725
663.00	0.0717
664.00	0.0705
665.00	0.0696
666.00	0.0691
667.00	0.0682
668.00	0.0674
669.00	0.0667
670.00	0.0668
671.00	0.0661
672.00	0.0658
673.00	0.0654
674.00	0.0650
675.00	0.0636
676.00	0.0632
677.00	0.0626
678.00	0.0619
679.00	0.0612
680.00	0.0610
681.00	0.0607
682.00	0.0600
683.00	0.0599
684.00	0.0597
685.00	0.0592
686.00	0.0585
687.00	0.0582
688.00	0.0576
689.00	0.0573
690.00	0.0565
691.00	0.0566
692.00	0.0564
693.00	0.0563
694.00	0.0558
695.00	0.0560
696.00	0.0553
697.00	0.0547
698.00	0.0541
699.00	0.0540
700.00	0.0537
701.00	0.0534
702.00	0.0533
703.00	0.0538
704.00	0.0537
705.00	0.0530
706.00	0.0525
707.00	0.0526
708.00	0.0526
709.00	0.0524
710.00	0.0525
711.00	0.0531
712.00	0.0529
713.00	0.0522
714.00	0.0518
715.00	0.0517
716.00	0.0515
717.00	0.0510
718.00	0.0505
719.00	0.0503
720.00	0.0502
721.00	0.0498
722.00	0.0498
723.00	0.0498
724.00	0.0491
725.00	0.0489
726.00	0.0479
727.00	0.0476
728.00	0.0472
729.00	0.0476
730.00	0.0473
731.00	0.0478
732.00	0.0476
733.00	0.0475
734.00	0.0473
735.00	0.0469
736.00	0.0461
737.00	0.0458
738.00	0.0459
739.00	0.0459
740.00	0.0457
741.00	0.0461
742.00	0.0460
743.00	0.0457
744.00	0.0454
745.00	0.0454
746.00	0.0454
747.00	0.0450
748.00	0.0453
749.00	0.0451
750.00	0.0452
751.00	0.0449
752.00	0.0451
753.00	0.0446
754.00	0.0447
755.00	0.0446
756.00	0.0447
757.00	0.0443
758.00	0.0443
759.00	0.0444
760.00	0.0442
761.00	0.0439
762.00	0.0437
763.00	0.0439
764.00	0.0438
765.00	0.0440
766.00	0.0438
767.00	0.0441
768.00	0.0438
769.00	0.0438
770.00	0.0431
771.00	0.0428
772.00	0.0426
773.00	0.0426
774.00	0.0423
775.00	0.0423
776.00	0.0424
777.00	0.0429
778.00	0.0427
779.00	0.0426
780.00	0.0421
781.00	0.0423
782.00	0.0414
783.00	0.0411
784.00	0.0407
785.00	0.0412
786.00	0.0410
787.00	0.0408
788.00	0.0405
789.00	0.0404
790.00	0.0400
791.00	0.0393
792.00	0.0388
793.00	0.0381
794.00	0.0377
795.00	0.0371
796.00	0.0364
797.00	0.0352
798.00	0.0345
799.00	0.0335
800.00	0.0327
801.00	0.0321
802.00	0.0319
803.00	0.0313
804.00	0.0306
805.00	0.0297
806.00	0.0289
807.00	0.0282
808.00	0.0279
809.00	0.0274
810.00	0.0271
811.00	0.0269
812.00	0.0264
813.00	0.0258
814.00	0.0255
815.00	0.0253
816.00	0.0250
817.00	0.0250
818.00	0.0248
819.00	0.0248
820.00	0.0247
821.00	0.0245
822.00	0.0245
823.00	0.0244
824.00	0.0242
825.00	0.0243
826.00	0.0242
827.00	0.0242
828.00	0.0243
829.00	0.0244
830.00	0.0244
831.00	0.0247
832.00	0.0246
833.00	0.0246
834.00	0.0243
835.00	0.0240
836.00	0.0239
837.00	0.0238
838.00	0.0237
839.00	0.0237
840.00	0.0236
841.00	0.0239
842.00	0.0240
843.00	0.0239
844.00	0.0241
845.00	0.0240
846.00	0.0238
847.00	0.0234
848.00	0.0232
849.00	0.0230
850.00	0.0230
851.00	0.0228
852.00	0.0229
853.00	0.0230
854.00	0.0231
855.00	0.0231
856.00	0.0231
857.00	0.0229
858.00	0.0226
859.00	0.0224
860.00	0.0223
861.00	0.0222
862.00	0.0222
863.00	0.0223
864.00	0.0224
865.00	0.0223
866.00	0.0223
867.00	0.0222
868.00	0.0221
869.00	0.0220
870.00	0.0220
871.00	0.0218
872.00	0.0217
873.00	0.0217
874.00	0.0216
875.00	0.0216
876.00	0.0219
877.00	0.0219
878.00	0.0216
879.00	0.0212
880.00	0.0211
881.00	0.0210
882.00	0.0209
883.00	0.0211
884.00	0.0212
885.00	0.0212
886.00	0.0210
887.00	0.0210
888.00	0.0207
889.00	0.0208
890.00	0.0207
891.00	0.0207
892.00	0.0205
893.00	0.0205
894.00	0.0204
895.00	0.0202
896.00	0.0202
897.00	0.0202
898.00	0.0201
899.00	0.0201
900.00	0.0199
901.00	0.0197
902.00	0.0195
903.00	0.0197
904.00	0.0197
905.00	0.0198
906.00	0.0199
907.00	0.0201
908.00	0.0200
909.00	0.0199
910.00	0.0198
911.00	0.0198
912.00	0.0196
913.00	0.0194
914.00	0.0193
915.00	0.0195
916.00	0.0195
917.00	0.0196
918.00	0.0197
919.00	0.0199
920.00	0.0197
921.00	0.0197
922.00	0.0195
923.00	0.0193
924.00	0.0190
925.00	0.0189
926.00	0.0189
927.00	0.0190
928.00	0.0190
929.00	0.0191
930.00	0.0190
931.00	0.0188
932.00	0.0187
933.00	0.0186
934.00	0.0186
935.00	0.0188
936.00	0.0188
937.00	0.0189
938.00	0.0190
939.00	0.0189
940.00	0.0186
941.00	0.0186
942.00	0.0186
943.00	0.0185
944.00	0.0185
945.00	0.0185
946.00	0.0183
947.00	0.0183
948.00	0.0184
949.00	0.0183
950.00	0.0183
951.00	0.0183
952.00	0.0182
953.00	0.0180
954.00	0.0180
955.00	0.0179
956.00	0.0179
957.00	0.0178
958.00	0.0178
959.00	0.0178
960.00	0.0179
961.00	0.0180
962.00	0.0180
963.00	0.0180
964.00	0.0180
965.00	0.0179
966.00	0.0178
967.00	0.0176
968.00	0.0177
969.00	0.0183
970.00	0.0178
971.00	0.0175
972.00	0.0175
973.00	0.0174
974.00	0.0166
975.00	0.0171
976.00	0.0173
977.00	0.0174
978.00	0.0174
979.00	0.0174
980.00	0.0173
981.00	0.0171
982.00	0.0172
983.00	0.0173
984.00	0.0174
985.00	0.0172
986.00	0.0173
987.00	0.0171
988.00	0.0171
989.00	0.0169
990.00	0.0171
991.00	0.0172
992.00	0.0172
993.00	0.0172
994.00	0.0173
995.00	0.0174
996.00	0.0173
997.00	0.0174
998.00	0.0173
999.00	0.0174
1000.00	0.0172
1001.00	0.0170
1002.00	0.0169
1003.00	0.0167
1004.00	0.0167
1005.00	0.0167
1006.00	0.0168
1007.00	0.0168
1008.00	0.0170
1009.00	0.0169
1010.00	0.0169
1011.00	0.0167
1012.00	0.0164
1013.00	0.0164
1014.00	0.0160
1015.00	0.0160
1016.00	0.0160
1017.00	0.0161
1018.00	0.0161
1019.00	0.0163
1020.00	0.0164
1021.00	0.0164
1022.00	0.0163
1023.00	0.0165
1024.00	0.0156
1025.00	0.0157
1026.00	0.0159
1027.00	0.0158
1028.00	0.0154
1029.00	0.0162
1030.00	0.0160
1031.00	0.0158
1032.00	0.0156
1033.00	0.0154
1034.00	0.0156
1035.00	0.0154
1036.00	0.0152
1037.00	0.0155
1038.00	0.0154
1039.00	0.0153
1040.00	0.0155
1041.00	0.0157
1042.00	0.0158
1043.00	0.0159
1044.00	0.0158
1045.00	0.0159
1046.00	0.0161
1047.00	0.0163
1048.00	0.0157
1049.00	0.0157
1050.00	0.0154
1051.00	0.0150
1052.00	0.0148
1053.00	0.0152
1054.00	0.0150
1055.00	0.0152
1056.00	0.0151
1057.00	0.0154
1058.00	0.0154
1059.00	0.0151
1060.00	0.0149
1061.00	0.0151
1062.00	0.0145
1063.00	0.0141
1064.00	0.0145
1065.00	0.0147
1066.00	0.0144
1067.00	0.0148
1068.00	0.0154
1069.00	0.0152
1070.00	0.0150
1071.00	0.0150
1072.00	0.0146
1073.00	0.0143
1074.00	0.0145
1075.00	0.0143
1076.00	0.0145
1077.00	0.0145
1078.00	0.0145
1079.00	0.0142
1080.00	0.0143
1081.00	0.0143
1082.00	0.0142
1083.00	0.0142
1084.00	0.0143
1085.00	0.0142
1086.00	0.0143
1087.00	0.0145
1088.00	0.0144
1089.00	0.0146
1090.00	0.0145
1091.00	0.0145
1092.00	0.0144
1093.00	0.0143
1094.00	0.0141
1095.00	0.0139
1096.00	0.0138
1097.00	0.0139
1098.00	0.0140
1099.00	0.0143
1100.00	0.0146
1101.00	0.0144
1102.00	0.0144
1103.00	0.0143
1104.00	0.0139
1105.00	0.0140
1106.00	0.0140
1107.00	0.0139
1108.00	0.0138
1109.00	0.0138
1110.00	0.0135
1111.00	0.0137
1112.00	0.0137
1113.00	0.0138
1114.00	0.0139
1115.00	0.0139
1116.00	0.0138
1117.00	0.0136
1118.00	0.0135
1119.00	0.0134
1120.00	0.0133
1121.00	0.0133
1122.00	0.0135
1123.00	0.0135
1124.00	0.0137
1125.00	0.0136
1126.00	0.0135
1127.00	0.0135
1128.00	0.0134
1129.00	0.0133
1130.00	0.0133
1131.00	0.0132
1132.00	0.0131
1133.00	0.0132
1134.00	0.0133
1135.00	0.0133
1136.00	0.0134
1137.00	0.0135
1138.00	0.0134
1139.00	0.0135
1140.00	0.0135
1141.00	0.0134
1142.00	0.0132
1143.00	0.0131
1144.00	0.0131
1145.00	0.0130
1146.00	0.0131
1147.00	0.0134
1148.00	0.0134
1149.00	0.0132
1150.00	0.0133
1151.00	0.0133
1152.00	0.0132
1153.00	0.0130
1154.00	0.0129
1155.00	0.0128
1156.00	0.0127
1157.00	0.0128
1158.00	0.0129
1159.00	0.0131
1160.00	0.0131
1161.00	0.0132
1162.00	0.0130
1163.00	0.0129
1164.00	0.0128
1165.00	0.0127
1166.00	0.0125
1167.00	0.0124
1168.00	0.0126
1169.00	0.0128
1170.00	0.0130
1171.00	0.0132
1172.00	0.0132
1173.00	0.0132
1174.00	0.0129
1175.00	0.0129
1176.00	0.0127
1177.00	0.0128
1178.00	0.0126
1179.00	0.0127
1180.00	0.0126
1181.00	0.0128
1182.00	0.0127
1183.00	0.0127
1184.00	0.0131
1185.00	0.0126
1186.00	0.0123
1187.00	0.0126
1188.00	0.0124
1189.00	0.0120
1190.00	0.0124
1191.00	0.0126
1192.00	0.0126
1193.00	0.0126
1194.00	0.0129
1195.00	0.0133
1196.00	0.0133
1197.00	0.0132
1198.00	0.0131
1199.00	0.0128
1200.00	0.0125
1201.00	0.0124
1202.00	0.0123
1203.00	0.0128
1204.00	0.0131
1205.00	0.0132
1206.00	0.0132
1207.00	0.0132
1208.00	0.0131
1209.00	0.0130
1210.00	0.0130
1211.00	0.0130
1212.00	0.0130
1213.00	0.0129
1214.00	0.0127
1215.00	0.0126
1216.00	0.0126
1217.00	0.0127
1218.00	0.0126
1219.00	0.0125
1220.00	0.0127
1221.00	0.0127
1222.00	0.0127
1223.00	0.0127
1224.00	0.0127
1225.00	0.0127
1226.00	0.0126
1227.00	0.0126
1228.00	0.0126
1229.00	0.0128
1230.00	0.0130
1231.00	0.0130
1232.00	0.0135
1233.00	0.0133
1234.00	0.0132
1235.00	0.0130
1236.00	0.0129
1237.00	0.0124
1238.00	0.0125
1239.00	0.0125
1240.00	0.0123
1241.00	0.0123
1242.00	0.0123
1243.00	0.0123
1244.00	0.0124
1245.00	0.0126
1246.00	0.0126
1247.00	0.0125
1248.00	0.0125
1249.00	0.0123
1250.00	0.0122
1251.00	0.0121
1252.00	0.0122
1253.00	0.0121
1254.00	0.0121
1255.00	0.0120
1256.00	0.0119
1257.00	0.0121
1258.00	0.0121
1259.00	0.0120
1260.00	0.0118
1261.00	0.0120
1262.00	0.0116
1263.00	0.0107
1264.00	0.0108
1265.00	0.0109
1266.00	0.0109
1267.00	0.0111
1268.00	0.0120
1269.00	0.0120
1270.00	0.0121
1271.00	0.0119
1272.00	0.0117
1273.00	0.0115
1274.00	0.0116
1275.00	0.0117
1276.00	0.0118
1277.00	0.0115
1278.00	0.0118
1279.00	0.0117
1280.00	0.0117
1281.00	0.0117
1282.00	0.0119
1283.00	0.0119
1284.00	0.0117
1285.00	0.0115
1286.00	0.0113
1287.00	0.0114
1288.00	0.0111
1289.00	0.0110
1290.00	0.0110
1291.00	0.0113
1292.00	0.0115
1293.00	0.0112
1294.00	0.0109
1295.00	0.0109
1296.00	0.0106
1297.00	0.0103
1298.00	0.0108
1299.00	0.0111
1300.00	0.0113
1301.00	0.0113
1302.00	0.0112
1303.00	0.0112
1304.00	0.0112
1305.00	0.0111
1306.00	0.0110
1307.00	0.0109
1308.00	0.0107
1309.00	0.0108
1310.00	0.0109
1311.00	0.0107
1312.00	0.0108
1313.00	0.0108
1314.00	0.0107
1315.00	0.0107
1316.00	0.0109
1317.00	0.0108
1318.00	0.0106
1319.00	0.0107
1320.00	0.0103
1321.00	0.0101
1322.00	0.0103
1323.00	0.0103
1324.00	0.0102
1325.00	0.0102
1326.00	0.0103
1327.00	0.0101
1328.00	0.0102
1329.00	0.0100
1330.00	0.0101
1331.00	0.0101
1332.00	0.0097
1333.00	0.0096
1334.00	0.0098
1335.00	0.0097
1336.00	0.0098
1337.00	0.0100
1338.00	0.0101
1339.00	0.0102
1340.00	0.0102
1341.00	0.0103
1342.00	0.0103
1343.00	0.0103
1344.00	0.0101
1345.00	0.0103
1346.00	0.0100
1347.00	0.0099
1348.00	0.0097
1349.00	0.0097
1350.00	0.0097
1351.00	0.0099
1352.00	0.0102
1353.00	0.0106
1354.00	0.0108
1355.00	0.0104
1356.00	0.0101
1357.00	0.0101
1358.00	0.0099
1359.00	0.0097
1360.00	0.0101
1361.00	0.0103
1362.00	0.0102
1363.00	0.0103
1364.00	0.0102
1365.00	0.0104
1366.00	0.0105
1367.00	0.0105
1368.00	0.0104
1369.00	0.0105
1370.00	0.0102
1371.00	0.0102
1372.00	0.0101
1373.00	0.0102
1374.00	0.0106
1375.00	0.0107
1376.00	0.0109
1377.00	0.0110
1378.00	0.0112
1379.00	0.0108
1380.00	0.0108
1381.00	0.0106
1382.00	0.0106
1383.00	0.0106
1384.00	0.0110
1385.00	0.0111
1386.00	0.0109
1387.00	0.0110
1388.00	0.0112
1389.00	0.0110
1390.00	0.0108
1391.00	0.0110
1392.00	0.0110
1393.00	0.0105
1394.00	0.0103
1395.00	0.0103
1396.00	0.0104
1397.00	0.0105
1398.00	0.0107
1399.00	0.0106
1400.00	0.0110
1401.00	0.0109
1402.00	0.0108
1403.00	0.0106
1404.00	0.0106
1405.00	0.0104
1406.00	0.0103
1407.00	0.0103
1408.00	0.0104
1409.00	0.0106
1410.00	0.0104
1411.00	0.0104
1412.00	0.0101
1413.00	0.0103
1414.00	0.0102
1415.00	0.0098
1416.00	0.0096
1417.00	0.0096
1418.00	0.0094
1419.00	0.0096
1420.00	0.0099
1421.00	0.0102
1422.00	0.0106
1423.00	0.0106
1424.00	0.0106
1425.00	0.0105
1426.00	0.0107
1427.00	0.0105
1428.00	0.0104
1429.00	0.0100
1430.00	0.0096
1431.00	0.0092
1432.00	0.0093
1433.00	0.0094
1434.00	0.0096
1435.00	0.0103
1436.00	0.0104
1437.00	0.0103
1438.00	0.0104
1439.00	0.0103
1440.00	0.0102
1441.00	0.0099
1442.00	0.0095
1443.00	0.0095
1444.00	0.0095
1445.00	0.0091
1446.00	0.0091
1447.00	0.0092
1448.00	0.0093
1449.00	0.0094
1450.00	0.0099
1451.00	0.0101
1452.00	0.0102
1453.00	0.0100
1454.00	0.0098
1455.00	0.0097
1456.00	0.0097
1457.00	0.0097
1458.00	0.0099
1459.00	0.0099
1460.00	0.0098
1461.00	0.0095
1462.00	0.0097
1463.00	0.0098
1464.00	0.0095
1465.00	0.0094
1466.00	0.0096
1467.00	0.0091
1468.00	0.0088
1469.00	0.0088
1470.00	0.0092
1471.00	0.0095
1472.00	0.0096
1473.00	0.0101
1474.00	0.0106
1475.00	0.0103
1476.00	0.0095
1477.00	0.0095
1478.00	0.0088
1479.00	0.0084
1480.00	0.0084
1481.00	0.0088
1482.00	0.0086
1483.00	0.0091
1484.00	0.0091
1485.00	0.0092
1486.00	0.0089
1487.00	0.0088
1488.00	0.0088
1489.00	0.0087
1490.00	0.0083
1491.00	0.0086
1492.00	0.0086
1493.00	0.0083
1494.00	0.0084
1495.00	0.0086
1496.00	0.0089
1497.00	0.0091
1498.00	0.0088
1499.00	0.0088
1500.00	0.0088
1501.00	0.0087
1502.00	0.0087
1503.00	0.0088
1504.00	0.0087
1505.00	0.0089
1506.00	0.0089
1507.00	0.0090
1508.00	0.0092
1509.00	0.0095
1510.00	0.0095
1511.00	0.0095
1512.00	0.0094
1513.00	0.0093
1514.00	0.0094
1515.00	0.0093
1516.00	0.0089
1517.00	0.0090
1518.00	0.0090
1519.00	0.0089
1520.00	0.0090
1521.00	0.0090
1522.00	0.0089
1523.00	0.0089
1524.00	0.0089
1525.00	0.0087
1526.00	0.0091
1527.00	0.0091
1528.00	0.0091
1529.00	0.0089
1530.00	0.0088
1531.00	0.0087
1532.00	0.0089
1533.00	0.0085
1534.00	0.0086
1535.00	0.0088
1536.00	0.0087
1537.00	0.0087
1538.00	0.0088
1539.00	0.0088
1540.00	0.0088
1541.00	0.0088
1542.00	0.0086
1543.00	0.0088
1544.00	0.0089
1545.00	0.0089
1546.00	0.0088
1547.00	0.0088
1548.00	0.0088
1549.00	0.0089
1550.00	0.0089
1551.00	0.0090
1552.00	0.0091
1553.00	0.0090
1554.00	0.0089
1555.00	0.0085
1556.00	0.0086
1557.00	0.0085
1558.00	0.0084
1559.00	0.0084
1560.00	0.0085
1561.00	0.0087
1562.00	0.0088
1563.00	0.0090
1564.00	0.0089
1565.00	0.0089
1566.00	0.0089
1567.00	0.0087
1568.00	0.0082
1569.00	0.0082
1570.00	0.0081
1571.00	0.0081
1572.00	0.0082
1573.00	0.0083
1574.00	0.0085
1575.00	0.0087
1576.00	0.0085
1577.00	0.0085
1578.00	0.0088
1579.00	0.0087
1580.00	0.0084
1581.00	0.0085
1582.00	0.0084
1583.00	0.0085
1584.00	0.0085
1585.00	0.0086
1586.00	0.0087
1587.00	0.0089
1588.00	0.0089
1589.00	0.0091
1590.00	0.0091
1591.00	0.0091
1592.00	0.0090
1593.00	0.0087
1594.00	0.0085
1595.00	0.0085
1596.00	0.0086
1597.00	0.0087
1598.00	0.0089
1599.00	0.0090
1600.00	0.0092
1601.00	0.0092
1602.00	0.0093
1603.00	0.0092
1604.00	0.0091
1605.00	0.0092
1606.00	0.0090
1607.00	0.0086
1608.00	0.0090
1609.00	0.0091
1610.00	0.0089
1611.00	0.0090
1612.00	0.0093
1613.00	0.0090
1614.00	0.0091
1615.00	0.0094
1616.00	0.0093
1617.00	0.0092
1618.00	0.0092
1619.00	0.0090
1620.00	0.0087
1621.00	0.0087
1622.00	0.0090
1623.00	0.0088
1624.00	0.0091
1625.00	0.0096
1626.00	0.0095
1627.00	0.0095
1628.00	0.0097
1629.00	0.0095
1630.00	0.0091
1631.00	0.0094
1632.00	0.0089
1633.00	0.0089
1634.00	0.0087
1635.00	0.0085
1636.00	0.0084
1637.00	0.0086
1638.00	0.0085
1639.00	0.0085
1640.00	0.0087
1641.00	0.0084
1642.00	0.0083
1643.00	0.0081
1644.00	0.0080
1645.00	0.0075
1646.00	0.0071
1647.00	0.0068
1648.00	0.0065
1649.00	0.0060
1650.00	0.0055
1651.00	0.0053
1652.00	0.0050
1653.00	0.0047
1654.00	0.0044
1655.00	0.0042
1656.00	0.0040
1657.00	0.0036
1658.00	0.0034
1659.00	0.0033
1660.00	0.0032
1661.00	0.0033
1662.00	0.0035
1663.00	0.0035
1664.00	0.0034
1665.00	0.0032
1666.00	0.0031
1667.00	0.0029
1668.00	0.0028
1669.00	0.0028
1670.00	0.0029
1671.00	0.0027
1672.00	0.0027
1673.00	0.0028
1674.00	0.0028
1675.00	0.0029
1676.00	0.0032
1677.00	0.0032
1678.00	0.0027
1679.00	0.0025
1680.00	0.0024
1681.00	0.0021
1682.00	0.0022
1683.00	0.0026
1684.00	0.0026
1685.00	0.0028
1686.00	0.0029
1687.00	0.0028
1688.00	0.0027
1689.00	0.0029
1690.00	0.0027
1691.00	0.0024
1692.00	0.0023
1693.00	0.0022
1694.00	0.0021
1695.00	0.0021
1696.00	0.0024
1697.00	0.0025
1698.00	0.0027
1699.00	0.0031
1700.00	0.0030
1701.00	0.0030
1702.00	0.0031
1703.00	0.0030
1704.00	0.0025
1705.00	0.0025
1706.00	0.0025
1707.00	0.0024
1708.00	0.0025
1709.00	0.0027
1710.00	0.0027
1711.00	0.0026
1712.00	0.0027
1713.00	0.0027
1714.00	0.0028
1715.00	0.0029
1716.00	0.0031
1717.00	0.0029
1718.00	0.0027
1719.00	0.0028
1720.00	0.0028
1721.00	0.0026
1722.00	0.0027
1723.00	0.0029
1724.00	0.0026
1725.00	0.0024
1726.00	0.0026
1727.00	0.0025
1728.00	0.0027
1729.00	0.0030
1730.00	0.0032
1731.00	0.0032
1732.00	0.0030
1733.00	0.0030
1734.00	0.0029
1735.00	0.0029
1736.00	0.0029
1737.00	0.0030
1738.00	0.0027
1739.00	0.0029
1740.00	0.0029
1741.00	0.0029
1742.00	0.0031
1743.00	0.0032
1744.00	0.0030
1745.00	0.0028
1746.00	0.0029
1747.00	0.0027
1748.00	0.0027
1749.00	0.0027
1750.00	0.0028
1751.00	0.0028
1752.00	0.0029
1753.00	0.0032
1754.00	0.0032
1755.00	0.0034
1756.00	0.0035
1757.00	0.0037
1758.00	0.0034
1759.00	0.0032
1760.00	0.0030
1761.00	0.0030
1762.00	0.0029
1763.00	0.0029
1764.00	0.0032
1765.00	0.0031
1766.00	0.0031
1767.00	0.0030
1768.00	0.0032
1769.00	0.0032
1770.00	0.0032
1771.00	0.0033
1772.00	0.0033
1773.00	0.0029
1774.00	0.0031
1775.00	0.0032
1776.00	0.0032
1777.00	0.0031
1778.00	0.0032
1779.00	0.0027
1780.00	0.0027
1781.00	0.0027
1782.00	0.0030
1783.00	0.0032
1784.00	0.0035
1785.00	0.0036
1786.00	0.0035
1787.00	0.0034
1788.00	0.0034
1789.00	0.0033
1790.00	0.0033
1791.00	0.0034
1792.00	0.0034
1793.00	0.0032
1794.00	0.0034
1795.00	0.0034
1796.00	0.0034
1797.00	0.0034
1798.00	0.0036
1799.00	0.0033
1800.00	0.0032
1801.00	0.0032
1802.00	0.0033
1803.00	0.0032
1804.00	0.0035
1805.00	0.0036
1806.00	0.0037
1807.00	0.0035
1808.00	0.0039
1809.00	0.0038
1810.00	0.0038
1811.00	0.0035
1812.00	0.0035
1813.00	0.0030
1814.00	0.0027
1815.00	0.0026
1816.00	0.0026
1817.00	0.0026
1818.00	0.0025
1819.00	0.0027
1820.00	0.0027
1821.00	0.0029
1822.00	0.0027
1823.00	0.0029
1824.00	0.0031
1825.00	0.0033
1826.00	0.0035
1827.00	0.0039
1828.00	0.0038
1829.00	0.0039
1830.00	0.0038
1831.00	0.0039
1832.00	0.0040
1833.00	0.0040
1834.00	0.0038
1835.00	0.0034
1836.00	0.0031
1837.00	0.0029
1838.00	0.0029
1839.00	0.0030
1840.00	0.0033
1841.00	0.0036
1842.00	0.0035
1843.00	0.0036
1844.00	0.0036
1845.00	0.0037
1846.00	0.0035
1847.00	0.0035
1848.00	0.0033
1849.00	0.0027
1850.00	0.0026
1851.00	0.0026
1852.00	0.0026
1853.00	0.0026
1854.00	0.0032
1855.00	0.0034
1856.00	0.0033
1857.00	0.0034
1858.00	0.0035
1859.00	0.0034
1860.00	0.0035
1861.00	0.0036
1862.00	0.0034
1863.00	0.0034
1864.00	0.0032
1865.00	0.0031
1866.00	0.0029
1867.00	0.0030
1868.00	0.0033
1869.00	0.0034
1870.00	0.0033
1871.00	0.0033
1872.00	0.0032
1873.00	0.0031
1874.00	0.0033
1875.00	0.0035
1876.00	0.0038
1877.00	0.0040
1878.00	0.0035
1879.00	0.0033
1880.00	0.0034
1881.00	0.0032
1882.00	0.0030
1883.00	0.0034
1884.00	0.0033
1885.00	0.0030
1886.00	0.0030
1887.00	0.0031
1888.00	0.0029
1889.00	0.0029
1890.00	0.0030
1891.00	0.0027
1892.00	0.0023
1893.00	0.0024
1894.00	0.0023
1895.00	0.0020
1896.00	0.0020
1897.00	0.0023
1898.00	0.0024
1899.00	0.0022
1900.00	0.0025
1901.00	0.0026
1902.00	0.0027
1903.00	0.0028
1904.00	0.0031
1905.00	0.0033
1906.00	0.0035
1907.00	0.0031
1908.00	0.0030
1909.00	0.0030
1910.00	0.0030
1911.00	0.0031
1912.00	0.0034
1913.00	0.0035
1914.00	0.0036
1915.00	0.0037
1916.00	0.0037
1917.00	0.0037
1918.00	0.0036
1919.00	0.0035
1920.00	0.0033
1921.00	0.0029
1922.00	0.0027
1923.00	0.0029
1924.00	0.0029
1925.00	0.0029
1926.00	0.0032
1927.00	0.0033
1928.00	0.0033
1929.00	0.0030
1930.00	0.0031
1931.00	0.0027
1932.00	0.0025
1933.00	0.0025
1934.00	0.0025
1935.00	0.0024
1936.00	0.0025
1937.00	0.0026
1938.00	0.0029
1939.00	0.0030
1940.00	0.0029
1941.00	0.0033
1942.00	0.0034
1943.00	0.0031
1944.00	0.0029
1945.00	0.0031
1946.00	0.0031
1947.00	0.0030
1948.00	0.0030
1949.00	0.0032
1950.00	0.0031
1951.00	0.0026
1952.00	0.0025
1953.00	0.0028
1954.00	0.0029
1955.00	0.0029
1956.00	0.0033
1957.00	0.0035
1958.00	0.0033
1959.00	0.0034
1960.00	0.0034
1961.00	0.0034
1962.00	0.0034
1963.00	0.0036
1964.00	0.0033
1965.00	0.0031
1966.00	0.0029
1967.00	0.0030
1968.00	0.0031
1969.00	0.0031
1970.00	0.0032
1971.00	0.0033
1972.00	0.0030
1973.00	0.0025
1974.00	0.0025
1975.00	0.0026
1976.00	0.0026
1977.00	0.0029
1978.00	0.0033
1979.00	0.0033
1980.00	0.0034
1981.00	0.0032
1982.00	0.0030
1983.00	0.0029
1984.00	0.0028
1985.00	0.0029
1986.00	0.0031
1987.00	0.0033
1988.00	0.0033
1989.00	0.0036
1990.00	0.0036
1991.00	0.0036
1992.00	0.0037
1993.00	0.0038
1994.00	0.0037
1995.00	0.0034
1996.00	0.0032
1997.00	0.0032
1998.00	0.0030
1999.00	0.0030
2000.00	0.0033
2001.00	0.0038
2002.00	0.0038
2003.00	0.0037
2004.00	0.0035
2005.00	0.0035
2006.00	0.0033
2007.00	0.0031
2008.00	0.0032
2009.00	0.0034
2010.00	0.0032
2011.00	0.0027
2012.00	0.0026
2013.00	0.0027
2014.00	0.0026
2015.00	0.0025
2016.00	0.0027
2017.00	0.0029
2018.00	0.0029
2019.00	0.0028
2020.00	0.0029
2021.00	0.0032
2022.00	0.0033
2023.00	0.0034
2024.00	0.0035
2025.00	0.0034
2026.00	0.0033
2027.00	0.0031
2028.00	0.0027
2029.00	0.0026
2030.00	0.0027
2031.00	0.0028
2032.00	0.0030
2033.00	0.0032
2034.00	0.0033
2035.00	0.0035
2036.00	0.0038
2037.00	0.0037
2038.00	0.0037
2039.00	0.0031
2040.00	0.0030
2041.00	0.0027
2042.00	0.0023
2043.00	0.0019
2044.00	0.0029
2045.00	0.0027
2046.00	0.0026
2047.00	0.0029
2048.00	0.0026
2049.00	0.0024
2050.00	0.0023
2051.00	0.0025
2052.00	0.0028
2053.00	0.0033
2054.00	0.0035
2055.00	0.0038
2056.00	0.0037
2057.00	0.0038
2058.00	0.0035
2059.00	0.0032
2060.00	0.0033
2061.00	0.0032
2062.00	0.0030
2063.00	0.0031
2064.00	0.0032
2065.00	0.0030
2066.00	0.0030
2067.00	0.0030
2068.00	0.0029
2069.00	0.0031
2070.00	0.0032
2071.00	0.0030
2072.00	0.0028
2073.00	0.0027
2074.00	0.0025
2075.00	0.0024
2076.00	0.0024
2077.00	0.0023
2078.00	0.0027
2079.00	0.0027
2080.00	0.0028
2081.00	0.0027
2082.00	0.0031
2083.00	0.0030
2084.00	0.0029
2085.00	0.0030
2086.00	0.0034
2087.00	0.0033
2088.00	0.0031
2089.00	0.0026
2090.00	0.0027
2091.00	0.0027
2092.00	0.0024
2093.00	0.0023
2094.00	0.0028
2095.00	0.0023
2096.00	0.0021
2097.00	0.0017
2098.00	0.0020
2099.00	0.0022
2100.00	0.0025
2101.00	0.0025
2102.00	0.0027
2103.00	0.0027
2104.00	0.0024
2105.00	0.0021
2106.00	0.0019
2107.00	0.0020
2108.00	0.0020
2109.00	0.0021
2110.00	0.0024
2111.00	0.0028
2112.00	0.0030
2113.00	0.0030
2114.00	0.0029
2115.00	0.0030
2116.00	0.0029
2117.00	0.0029
2118.00	0.0032
2119.00	0.0032
2120.00	0.0031
2121.00	0.0027
2122.00	0.0025
2123.00	0.0024
2124.00	0.0023
2125.00	0.0024
2126.00	0.0028
2127.00	0.0030
2128.00	0.0032
2129.00	0.0030
2130.00	0.0032
2131.00	0.0029
2132.00	0.0029
2133.00	0.0030
2134.00	0.0034
2135.00	0.0034
2136.00	0.0034
2137.00	0.0032
2138.00	0.0029
2139.00	0.0024
2140.00	0.0024
2141.00	0.0025
2142.00	0.0028
2143.00	0.0029
2144.00	0.0033
2145.00	0.0034
2146.00	0.0035
2147.00	0.0034
2148.00	0.0034
2149.00	0.0033
2150.00	0.0029
2151.00	0.0029
2152.00	0.0029
2153.00	0.0027
2154.00	0.0025
2155.00	0.0028
2156.00	0.0026
2157.00	0.0026
2158.00	0.0026
2159.00	0.0029
2160.00	0.0025
2161.00	0.0024
2162.00	0.0024
2163.00	0.0024
2164.00	0.0023
2165.00	0.0027
2166.00	0.0028
2167.00	0.0031
2168.00	0.0032
2169.00	0.0032
2170.00	0.0028
2171.00	0.0026
2172.00	0.0028
2173.00	0.0029
2174.00	0.0025
2175.00	0.0026
2176.00	0.0030
2177.00	0.0028
2178.00	0.0026
2179.00	0.0032
2180.00	0.0038
2181.00	0.0039
2182.00	0.0039
2183.00	0.0039
2184.00	0.0040
2185.00	0.0039
2186.00	0.0036
2187.00	0.0034
2188.00	0.0035
2189.00	0.0036
2190.00	0.0035
2191.00	0.0034
2192.00	0.0038
2193.00	0.0040
2194.00	0.0036
2195.00	0.0034
2196.00	0.0035
2197.00	0.0039
2198.00	0.0039
2199.00	0.0044
2200.00	0.0047
2201.00	0.0049
2202.00	0.0047
2203.00	0.0047
2204.00	0.0046
2205.00	0.0042
2206.00	0.0042
2207.00	0.0040
2208.00	0.0041
2209.00	0.0037
2210.00	0.0044
2211.00	0.0043
2212.00	0.0044
2213.00	0.0040
2214.00	0.0045
2215.00	0.0044
2216.00	0.0044
2217.00	0.0045
2218.00	0.0045
2219.00	0.0045
2220.00	0.0044
2221.00	0.0039
2222.00	0.0037
2223.00	0.0039
2224.00	0.0037
2225.00	0.0035
2226.00	0.0039
2227.00	0.0039
2228.00	0.0038
2229.00	0.0036
2230.00	0.0033
2231.00	0.0034
2232.00	0.0039
2233.00	0.0038
2234.00	0.0041
2235.00	0.0044
2236.00	0.0043
2237.00	0.0039
2238.00	0.0037
2239.00	0.0039
2240.00	0.0045
2241.00	0.0048
2242.00	0.0048
2243.00	0.0054
2244.00	0.0057
2245.00	0.0055
2246.00	0.0055
2247.00	0.0051
2248.00	0.0051
2249.00	0.0050
2250.00	0.0043
2251.00	0.0043
2252.00	0.0049
2253.00	0.0049
2254.00	0.0048
2255.00	0.0053
2256.00	0.0050
2257.00	0.0051
2258.00	0.0050
2259.00	0.0047
2260.00	0.0046
2261.00	0.0047
2262.00	0.0045
2263.00	0.0047
2264.00	0.0050
2265.00	0.0048
2266.00	0.0048
2267.00	0.0046
2268.00	0.0044
2269.00	0.0044
2270.00	0.0046
2271.00	0.0044
2272.00	0.0044
2273.00	0.0039
2274.00	0.0035
2275.00	0.0035
2276.00	0.0035
2277.00	0.0036
2278.00	0.0039
2279.00	0.0039
2280.00	0.0038
2281.00	0.0040
2282.00	0.0035
2283.00	0.0035
2284.00	0.0034
2285.00	0.0031
2286.00	0.0031
2287.00	0.0033
2288.00	0.0031
2289.00	0.0030
2290.00	0.0033
2291.00	0.0030
2292.00	0.0031
2293.00	0.0033
2294.00	0.0031
2295.00	0.0031
2296.00	0.0032
2297.00	0.0029
2298.00	0.0028
2299.00	0.0031
2300.00	0.0027
2301.00	0.0031
2302.00	0.0031
2303.00	0.0032
2304.00	0.0031
2305.00	0.0036
2306.00	0.0033
2307.00	0.0034
2308.00	0.0033
2309.00	0.0034
2310.00	0.0031
2311.00	0.0028
2312.00	0.0029
2313.00	0.0027
2314.00	0.0026
2315.00	0.0028
2316.00	0.0032
2317.00	0.0032
2318.00	0.0033
2319.00	0.0034
2320.00	0.0032
2321.00	0.0032
2322.00	0.0031
2323.00	0.0030
2324.00	0.0031
2325.00	0.0034
2326.00	0.0032
2327.00	0.0030
2328.00	0.0027
2329.00	0.0025
2330.00	0.0026
2331.00	0.0025
2332.00	0.0028
2333.00	0.0033
2334.00	0.0034
2335.00	0.0031
2336.00	0.0030
2337.00	0.0028
2338.00	0.0030
2339.00	0.0030
2340.00	0.0031
2341.00	0.0034
2342.00	0.0037
2343.00	0.0032
2344.00	0.0034
2345.00	0.0036
2346.00	0.0033
2347.00	0.0028
2348.00	0.0030
2349.00	0.0028
2350.00	0.0026
2351.00	0.0028
2352.00	0.0034
2353.00	0.0034
2354.00	0.0036
2355.00	0.0037
2356.00	0.0037
2357.00	0.0034
2358.00	0.0030
2359.00	0.0031
2360.00	0.0029
2361.00	0.0027
2362.00	0.0025
2363.00	0.0032
2364.00	0.0028
2365.00	0.0025
2366.00	0.0026
2367.00	0.0028
2368.00	0.0024
2369.00	0.0026
2370.00	0.0031
2371.00	0.0031
2372.00	0.0032
2373.00	0.0033
2374.00	0.0032
2375.00	0.0032
2376.00	0.0031
2377.00	0.0030
2378.00	0.0028
2379.00	0.0030
2380.00	0.0028
2381.00	0.0027
2382.00	0.0024
2383.00	0.0026
2384.00	0.0023
2385.00	0.0024
2386.00	0.0029
2387.00	0.0032
2388.00	0.0033
2389.00	0.0035
2390.00	0.0031
2391.00	0.0027
2392.00	0.0025
2393.00	0.0023
2394.00	0.0019
2395.00	0.0024
2396.00	0.0022
2397.00	0.0026
2398.00	0.0027
2399.00	0.0031
2400.00	0.0028
2401.00	0.0029
2402.00	0.0023
2403.00	0.0020
2404.00	0.0018
2405.00	0.0020
2406.00	0.0022
2407.00	0.0023
2408.00	0.0023
2409.00	0.0027
2410.00	0.0029
2411.00	0.0030
2412.00	0.0032
2413.00	0.0032
2414.00	0.0032
2415.00	0.0031
2416.00	0.0032
2417.00	0.0036
2418.00	0.0038
2419.00	0.0038
2420.00	0.0034
2421.00	0.0031
2422.00	0.0028
2423.00	0.0025
2424.00	0.0024
2425.00	0.0028
2426.00	0.0029
2427.00	0.0029
2428.00	0.0030
2429.00	0.0029
2430.00	0.0028
2431.00	0.0028
2432.00	0.0028
2433.00	0.0028
2434.00	0.0030
2435.00	0.0031
2436.00	0.0032
2437.00	0.0034
2438.00	0.0035
2439.00	0.0035
2440.00	0.0035
2441.00	0.0031
2442.00	0.0028
2443.00	0.0029
2444.00	0.0027
2445.00	0.0026
2446.00	0.0028
2447.00	0.0027
2448.00	0.0029
2449.00	0.0027
2450.00	0.0027
2451.00	0.0031
2452.00	0.0035
2453.00	0.0034
2454.00	0.0031
2455.00	0.0033
2456.00	0.0031
2457.00	0.0028
2458.00	0.0026
2459.00	0.0033
2460.00	0.0031
2461.00	0.0032
2462.00	0.0032
2463.00	0.0031
2464.00	0.0026
2465.00	0.0026
2466.00	0.0022
2467.00	0.0021
2468.00	0.0025
2469.00	0.0024
2470.00	0.0025
2471.00	0.0028
2472.00	0.0033
2473.00	0.0031
2474.00	0.0034
2475.00	0.0037
2476.00	0.0039
2477.00	0.0034
2478.00	0.0033
2479.00	0.0033
2480.00	0.0028
2481.00	0.0027
2482.00	0.0028
2483.00	0.0029
2484.00	0.0025
2485.00	0.0030
2486.00	0.0027
2487.00	0.0031
2488.00	0.0034
2489.00	0.0037
2490.00	0.0034
2491.00	0.0033
2492.00	0.0028
2493.00	0.0025
2494.00	0.0027
2495.00	0.0025
2496.00	0.0031
2497.00	0.0031
2498.00	0.0026
2499.00	0.0027
2500.00	0.0032
2501.00	0.0035
2502.00	0.0034
2503.00	0.0035
2504.00	0.0040
2505.00	0.0040
2506.00	0.0042
2507.00	0.0042
2508.00	0.0039
2509.00	0.0041
2510.00	0.0043
2511.00	0.0045
2512.00	0.0044
2513.00	0.0043
2514.00	0.0044
2515.00	0.0046
2516.00	0.0045
2517.00	0.0046
2518.00	0.0047
2519.00	0.0048
2520.00	0.0049
2521.00	0.0050
2522.00	0.0050
2523.00	0.0050
2524.00	0.0050
2525.00	0.0048
2526.00	0.0048
2527.00	0.0043
2528.00	0.0045
2529.00	0.0046
2530.00	0.0043
2531.00	0.0042
2532.00	0.0042
2533.00	0.0042
2534.00	0.0047
2535.00	0.0046
2536.00	0.0046
2537.00	0.0048
2538.00	0.0049
2539.00	0.0052
2540.00	0.0053
2541.00	0.0055
2542.00	0.0055
2543.00	0.0056
2544.00	0.0055
2545.00	0.0055
2546.00	0.0051
2547.00	0.0050
2548.00	0.0046
2549.00	0.0045
2550.00	0.0045
2551.00	0.0045
2552.00	0.0044
2553.00	0.0043
2554.00	0.0040
2555.00	0.0038
2556.00	0.0041
2557.00	0.0039
2558.00	0.0038
2559.00	0.0040
2560.00	0.0042
2561.00	0.0047
2562.00	0.0050
2563.00	0.0045
2564.00	0.0047
2565.00	0.0051
2566.00	0.0051
2567.00	0.0054
2568.00	0.0053
2569.00	0.0052
2570.00	0.0055
2571.00	0.0054
2572.00	0.0054
2573.00	0.0060
2574.00	0.0057
2575.00	0.0055
2576.00	0.0057
2577.00	0.0054
2578.00	0.0053
2579.00	0.0050
2580.00	0.0043
2581.00	0.0045
2582.00	0.0045
2583.00	0.0043
2584.00	0.0044
2585.00	0.0050
2586.00	0.0051
2587.00	0.0053
2588.00	0.0052
2589.00	0.0055
2590.00	0.0053
2591.00	0.0057
2592.00	0.0052
2593.00	0.0054
2594.00	0.0049
2595.00	0.0046
2596.00	0.0042
2597.00	0.0041
2598.00	0.0033
2599.00	0.0032
2600.00	0.0030
2601.00	0.0030
2602.00	0.0033
2603.00	0.0036
2604.00	0.0038
2605.00	0.0044
2606.00	0.0047
2607.00	0.0049
2608.00	0.0052
2609.00	0.0050
2610.00	0.0054
2611.00	0.0054
2612.00	0.0054
2613.00	0.0058
2614.00	0.0059
2615.00	0.0064
2616.00	0.0067
2617.00	0.0063
2618.00	0.0065
2619.00	0.0066
2620.00	0.0060
2621.00	0.0058
2622.00	0.0052
2623.00	0.0053
2624.00	0.0052
2625.00	0.0054
2626.00	0.0057
2627.00	0.0060
2628.00	0.0063
2629.00	0.0065
2630.00	0.0068
2631.00	0.0068
2632.00	0.0068
2633.00	0.0066
2634.00	0.0067
2635.00	0.0069
2636.00	0.0071
2637.00	0.0070
2638.00	0.0074
2639.00	0.0075
2640.00	0.0077
2641.00	0.0081
2642.00	0.0078
2643.00	0.0078
2644.00	0.0079
2645.00	0.0076
2646.00	0.0074
2647.00	0.0072
2648.00	0.0069
2649.00	0.0068
2650.00	0.0066
2651.00	0.0063
2652.00	0.0062
2653.00	0.0059
2654.00	0.0058
2655.00	0.0056
2656.00	0.0050
2657.00	0.0051
2658.00	0.0050
2659.00	0.0046
2660.00	0.0048
2661.00	0.0048
2662.00	0.0045
2663.00	0.0056
2664.00	0.0063
2665.00	0.0070
2666.00	0.0083
2667.00	0.0096
2668.00	0.0117
2669.00	0.0139
2670.00	0.0159
2671.00	0.0172
2672.00	0.0181
2673.00	0.0197
2674.00	0.0211
2675.00	0.0213
2676.00	0.0224
2677.00	0.0222
2678.00	0.0226
2679.00	0.0239
2680.00	0.0244
2681.00	0.0246
2682.00	0.0257
2683.00	0.0271
2684.00	0.0288
2685.00	0.0310
2686.00	0.0326
2687.00	0.0350
2688.00	0.0387
2689.00	0.0420
2690.00	0.0443
2691.00	0.0492
2692.00	0.0529
2693.00	0.0577
2694.00	0.0622
2695.00	0.0670
2696.00	0.0720
2697.00	0.0760
2698.00	0.0795
2699.00	0.0840
2700.00	0.0882
2701.00	0.0909
2702.00	0.0941
2703.00	0.0978
2704.00	0.1007
2705.00	0.1030
2706.00	0.1073
2707.00	0.1096
2708.00	0.1121
2709.00	0.1127
2710.00	0.1150
2711.00	0.1169
2712.00	0.1192
2713.00	0.1197
2714.00	0.1195
2715.00	0.1196
2716.00	0.1202
2717.00	0.1209
2718.00	0.1188
2719.00	0.1178
2720.00	0.1184
2721.00	0.1178
2722.00	0.1149
2723.00	0.1130
2724.00	0.1143
2725.00	0.1141
2726.00	0.1133
2727.00	0.1141
2728.00	0.1115
2729.00	0.1102
2730.00	0.1107
2731.00	0.1107
2732.00	0.1091
2733.00	0.1084
2734.00	0.1086
2735.00	0.1043
2736.00	0.1025
2737.00	0.1011
2738.00	0.0982
2739.00	0.0963
2740.00	0.0971
2741.00	0.0946
2742.00	0.0933
2743.00	0.0917
2744.00	0.0918
2745.00	0.0903
2746.00	0.0917
2747.00	0.0907
2748.00	0.0901
2749.00	0.0889
2750.00	0.0872
2751.00	0.0850
2752.00	0.0844
2753.00	0.0818
2754.00	0.0798
2755.00	0.0776
2756.00	0.0747
2757.00	0.0726
2758.00	0.0718
2759.00	0.0714
2760.00	0.0699
2761.00	0.0697
2762.00	0.0687
2763.00	0.0673
2764.00	0.0660
2765.00	0.0651
2766.00	0.0644
2767.00	0.0644
2768.00	0.0632
2769.00	0.0611
2770.00	0.0581
2771.00	0.0572
2772.00	0.0562
2773.00	0.0552
2774.00	0.0535
2775.00	0.0529
2776.00	0.0518
2777.00	0.0512
2778.00	0.0494
2779.00	0.0484
2780.00	0.0480
2781.00	0.0470
2782.00	0.0459
2783.00	0.0445
2784.00	0.0439
2785.00	0.0430
2786.00	0.0424
2787.00	0.0421
2788.00	0.0409
2789.00	0.0404
2790.00	0.0396
2791.00	0.0389
2792.00	0.0383
2793.00	0.0378
2794.00	0.0370
2795.00	0.0363
2796.00	0.0355
2797.00	0.0345
2798.00	0.0334
2799.00	0.0327
2800.00	0.0319
2801.00	0.0310
2802.00	0.0302
2803.00	0.0295
2804.00	0.0287
2805.00	0.0284
2806.00	0.0275
2807.00	0.0273
2808.00	0.0266
2809.00	0.0262
2810.00	0.0254
2811.00	0.0249
2812.00	0.0242
2813.00	0.0237
2814.00	0.0228
2815.00	0.0223
2816.00	0.0218
2817.00	0.0214
2818.00	0.0206
2819.00	0.0202
2820.00	0.0200
2821.00	0.0197
2822.00	0.0194
2823.00	0.0191
2824.00	0.0187
2825.00	0.0186
2826.00	0.0183
2827.00	0.0180
2828.00	0.0176
2829.00	0.0175
2830.00	0.0171
2831.00	0.0168
2832.00	0.0164
2833.00	0.0161
2834.00	0.0158
2835.00	0.0154
2836.00	0.0151
2837.00	0.0148
2838.00	0.0143
2839.00	0.0138
2840.00	0.0134
2841.00	0.0132
2842.00	0.0128
2843.00	0.0126
2844.00	0.0123
2845.00	0.0121
2846.00	0.0120
2847.00	0.0119
2848.00	0.0117
2849.00	0.0117
2850.00	0.0116
2851.00	0.0115
2852.00	0.0112
2853.00	0.0113
2854.00	0.0110
2855.00	0.0108
2856.00	0.0107
2857.00	0.0106
2858.00	0.0105
2859.00	0.0103
2860.00	0.0101
2861.00	0.0101
2862.00	0.0100
2863.00	0.0100
2864.00	0.0096
2865.00	0.0094
2866.00	0.0096
2867.00	0.0093
2868.00	0.0092
2869.00	0.0090
2870.00	0.0089
2871.00	0.0088
2872.00	0.0086
2873.00	0.0085
2874.00	0.0084
2875.00	0.0085
2876.00	0.0084
2877.00	0.0080
2878.00	0.0078
2879.00	0.0078
2880.00	0.0076
2881.00	0.0077
2882.00	0.0076
2883.00	0.0075
2884.00	0.0073
2885.00	0.0070
2886.00	0.0069
2887.00	0.0070
2888.00	0.0070
2889.00	0.0071
2890.00	0.0068
2891.00	0.0068
2892.00	0.0065
2893.00	0.0064
2894.00	0.0064
2895.00	0.0064
2896.00	0.0063
2897.00	0.0062
2898.00	0.0060
2899.00	0.0059
2900.00	0.0057
2901.00	0.0058
2902.00	0.0057
2903.00	0.0057
2904.00	0.0056
2905.00	0.0055
2906.00	0.0054
2907.00	0.0054
2908.00	0.0053
2909.00	0.0053
2910.00	0.0054
2911.00	0.0053
2912.00	0.0054
2913.00	0.0053
2914.00	0.0053
2915.00	0.0053
2916.00	0.0053
2917.00	0.0054
2918.00	0.0052
2919.00	0.0052
2920.00	0.0050
2921.00	0.0047
2922.00	0.0046
2923.00	0.0044
2924.00	0.0043
2925.00	0.0041
2926.00	0.0040
2927.00	0.0040
2928.00	0.0039
2929.00	0.0041
2930.00	0.0040
2931.00	0.0041
2932.00	0.0041
2933.00	0.0041
2934.00	0.0041
2935.00	0.0040
2936.00	0.0042
2937.00	0.0042
2938.00	0.0041
2939.00	0.0041
2940.00	0.0041
2941.00	0.0044
2942.00	0.0045
2943.00	0.0047
2944.00	0.0048
2945.00	0.0048
2946.00	0.0048
2947.00	0.0046
2948.00	0.0044
2949.00	0.0045
2950.00	0.0044
2951.00	0.0043
2952.00	0.0040
2953.00	0.0039
2954.00	0.0037
2955.00	0.0036
2956.00	0.0034
2957.00	0.0034
2958.00	0.0034
2959.00	0.0033
2960.00	0.0032
2961.00	0.0031
2962.00	0.0031
2963.00	0.0034
2964.00	0.0035
2965.00	0.0037
2966.00	0.0039
2967.00	0.0041
2968.00	0.0042
2969.00	0.0043
2970.00	0.0043
2971.00	0.0042
2972.00	0.0044
2973.00	0.0044
2974.00	0.0043
2975.00	0.0040
2976.00	0.0035
2977.00	0.0033
2978.00	0.0035
2979.00	0.0033
2980.00	0.0033
2981.00	0.0036
2982.00	0.0036
2983.00	0.0038
2984.00	0.0039
2985.00	0.0039
2986.00	0.0039
2987.00	0.0039
2988.00	0.0040
2989.00	0.0038
2990.00	0.0038
2991.00	0.0038
2992.00	0.0039
2993.00	0.0039
2994.00	0.0034
2995.00	0.0034
2996.00	0.0042
2997.00	0.0052
2998.00	0.0062
2999.00	0.0071
3000.00	0.0080
3001.00	0.0088
3002.00	0.0093
3003.00	0.0098
3004.00	0.0105
3005.00	0.0110
3006.00	0.0115
3007.00	0.0120
3008.00	0.0127
3009.00	0.0131
3010.00	0.0131
3011.00	0.0130
3012.00	0.0130
3013.00	0.0129
3014.00	0.0129
3015.00	0.0128
3016.00	0.0128
3017.00	0.0127
3018.00	0.0126
3019.00	0.0127
3020.00	0.0126
3021.00	0.0126
3022.00	0.0125
3023.00	0.0126
3024.00	0.0125
3025.00	0.0126
3026.00	0.0125
3027.00	0.0125
3028.00	0.0125
3029.00	0.0125
3030.00	0.0125
3031.00	0.0125
3032.00	0.0124
3033.00	0.0124
3034.00	0.0124
3035.00	0.0123
3036.00	0.0123
3037.00	0.0126
3038.00	0.0125
3039.00	0.0127
3040.00	0.0125
3041.00	0.0124
3042.00	0.0123
3043.00	0.0124
3044.00	0.0124
3045.00	0.0124
3046.00	0.0125
3047.00	0.0125
3048.00	0.0124
3049.00	0.0124
3050.00	0.0125
3051.00	0.0127
3052.00	0.0129
3053.00	0.0129
3054.00	0.0129
3055.00	0.0131
3056.00	0.0130
3057.00	0.0130
3058.00	0.0131
3059.00	0.0133
3060.00	0.0134
3061.00	0.0134
3062.00	0.0134
3063.00	0.0134
3064.00	0.0133
3065.00	0.0136
3066.00	0.0137
3067.00	0.0137
3068.00	0.0137
3069.00	0.0136
3070.00	0.0137
3071.00	0.0136
3072.00	0.0135
3073.00	0.0136
3074.00	0.0137
3075.00	0.0138
3076.00	0.0138
3077.00	0.0138
3078.00	0.0137
3079.00	0.0139
3080.00	0.0138
3081.00	0.0139
3082.00	0.0138
3083.00	0.0137
3084.00	0.0137
3085.00	0.0137
3086.00	0.0138
3087.00	0.0136
3088.00	0.0136
3089.00	0.0135
3090.00	0.0133
3091.00	0.0133
3092.00	0.0133
3093.00	0.0132
3094.00	0.0132
3095.00	0.0132
3096.00	0.0131
3097.00	0.0131
3098.00	0.0131
3099.00	0.0131
3100.00	0.0131
3101.00	0.0133
3102.00	0.0131
3103.00	0.0132
3104.00	0.0132
3105.00	0.0130
3106.00	0.0130
3107.00	0.0131
3108.00	0.0130
3109.00	0.0130
3110.00	0.0129
3111.00	0.0128
3112.00	0.0128
3113.00	0.0128
3114.00	0.0127
3115.00	0.0126
3116.00	0.0127
3117.00	0.0125
3118.00	0.0123
3119.00	0.0122
3120.00	0.0120
3121.00	0.0121
3122.00	0.0122
3123.00	0.0122
3124.00	0.0120
3125.00	0.0121
3126.00	0.0119
3127.00	0.0119
3128.00	0.0119
3129.00	0.0116
3130.00	0.0117
3131.00	0.0116
3132.00	0.0117
3133.00	0.0116
3134.00	0.0117
3135.00	0.0114
3136.00	0.0114
3137.00	0.0114
3138.00	0.0113
3139.00	0.0112
3140.00	0.0110
3141.00	0.0111
3142.00	0.0109
3143.00	0.0109
3144.00	0.0109
3145.00	0.0111
3146.00	0.0113
3147.00	0.0107
3148.00	0.0108
3149.00	0.0104
3150.00	0.0102
3151.00	0.0100
3152.00	0.0102
3153.00	0.0104
3154.00	0.0105
3155.00	0.0104
3156.00	0.0103
3157.00	0.0103
3158.00	0.0104
3159.00	0.0110
3160.00	0.0111
3161.00	0.0112
3162.00	0.0110
3163.00	0.0110
3164.00	0.0115
3165.00	0.0116
3166.00	0.0117
3167.00	0.0117
3168.00	0.0117
3169.00	0.0116
3170.00	0.0113
3171.00	0.0114
3172.00	0.0117
3173.00	0.0119
3174.00	0.0121
3175.00	0.0120
3176.00	0.0120
3177.00	0.0120
3178.00	0.0120
3179.00	0.0118
3180.00	0.0121
3181.00	0.0117
3182.00	0.0117
3183.00	0.0120
3184.00	0.0120
3185.00	0.0118
3186.00	0.0121
3187.00	0.0125
3188.00	0.0123
3189.00	0.0124
3190.00	0.0124
3191.00	0.0122
3192.00	0.0123
3193.00	0.0116
3194.00	0.0117
3195.00	0.0119
3196.00	0.0127
3197.00	0.0124
3198.00	0.0125
3199.00	0.0124
3200.00	0.0121
3201.00	0.0125
3202.00	0.0122
3203.00	0.0125
3204.00	0.0128
3205.00	0.0126
3206.00	0.0119
3207.00	0.0119
3208.00	0.0119
3209.00	0.0118
3210.00	0.0125
3211.00	0.0126
3212.00	0.0125
3213.00	0.0123
3214.00	0.0123
3215.00	0.0126
3216.00	0.0121
3217.00	0.0122
3218.00	0.0115
3219.00	0.0125
3220.00	0.0127
3221.00	0.0117
3222.00	0.0115
3223.00	0.0120
3224.00	0.0118
3225.00	0.0126
3226.00	0.0127
3227.00	0.0123
3228.00	0.0124
3229.00	0.0124
3230.00	0.0121
3231.00	0.0127
3232.00	0.0128
3233.00	0.0134
3234.00	0.0142
3235.00	0.0138
3236.00	0.0131
3237.00	0.0135
3238.00	0.0130
3239.00	0.0144
3240.00	0.0134
3241.00	0.0133
3242.00	0.0124
3243.00	0.0127
3244.00	0.0131
3245.00	0.0115
3246.00	0.0111
3247.00	0.0108
3248.00	0.0110
3249.00	0.0109
3250.00	0.0112
3251.00	0.0114
3252.00	0.0123
3253.00	0.0115
3254.00	0.0106
3255.00	0.0109
3256.00	0.0100
3257.00	0.0118
3258.00	0.0118
3259.00	0.0119
3260.00	0.0101
3261.00	0.0097
3262.00	0.0099
3263.00	0.0091
3264.00	0.0102
3265.00	0.0098
3266.00	0.0098
3267.00	0.0081
3268.00	0.0067
3269.00	0.0063
3270.00	0.0067
3271.00	0.0058
3272.00	0.0038
3273.00	0.0034
3274.00	0.0037
3275.00	0.0030
3276.00	0.0032
3277.00	0.0036
3278.00	0.0049
3279.00	0.0051
3280.00	0.0063
3281.00	0.0075
3282.00	0.0086
3283.00	0.0088
3284.00	0.0096
3285.00	0.0109
3286.00	0.0118
3287.00	0.0131
3288.00	0.0143
3289.00	0.0177
3290.00	0.0182
3291.00	0.0153
3292.00	0.0197
3293.00	0.0226
3294.00	0.0270
3295.00	0.0290
3296.00	0.0331
3297.00	0.0362
3298.00	0.0374
3299.00	0.0392
3300.00	0.0420
