"20-30mM-1_Toluene20mM - RawData"
"Wavelength nm."	"Abs."
300.00	0.1367
301.00	0.1372
302.00	0.1374
303.00	0.1376
304.00	0.1375
305.00	0.1377
306.00	0.1377
307.00	0.1380
308.00	0.1388
309.00	0.1397
310.00	0.1402
311.00	0.1407
312.00	0.1417
313.00	0.1426
314.00	0.1437
315.00	0.1454
316.00	0.1474
317.00	0.1492
318.00	0.1510
319.00	0.1530
320.00	0.1546
321.00	0.1563
322.00	0.1579
323.00	0.1598
324.00	0.1613
325.00	0.1632
326.00	0.1651
327.00	0.1671
328.00	0.1689
329.00	0.1708
330.00	0.1727
331.00	0.1742
332.00	0.1755
333.00	0.1774
334.00	0.1794
335.00	0.1817
336.00	0.1845
337.00	0.1875
338.00	0.1899
339.00	0.1924
340.00	0.1949
341.00	0.1969
342.00	0.1989
343.00	0.2010
344.00	0.2028
345.00	0.2048
346.00	0.2068
347.00	0.2087
348.00	0.2105
349.00	0.2122
350.00	0.2137
351.00	0.2156
352.00	0.2174
353.00	0.2192
354.00	0.2208
355.00	0.2223
356.00	0.2237
357.00	0.2250
358.00	0.2263
359.00	0.2278
360.00	0.2293
361.00	0.2306
362.00	0.2314
363.00	0.2332
364.00	0.2351
365.00	0.2372
366.00	0.2395
367.00	0.2424
368.00	0.2443
369.00	0.2465
370.00	0.2487
371.00	0.2515
372.00	0.2534
373.00	0.2554
374.00	0.2574
375.00	0.2592
376.00	0.2606
377.00	0.2630
378.00	0.2655
379.00	0.2681
380.00	0.2712
381.00	0.2743
382.00	0.2773
383.00	0.2808
384.00	0.2842
385.00	0.2876
386.00	0.2911
387.00	0.2949
388.00	0.2983
389.00	0.3016
390.00	0.3049
391.00	0.3082
392.00	0.3114
393.00	0.3145
394.00	0.3176
395.00	0.3206
396.00	0.3233
397.00	0.3261
398.00	0.3286
399.00	0.3313
400.00	0.3341
401.00	0.3371
402.00	0.3401
403.00	0.3435
404.00	0.3467
405.00	0.3500
406.00	0.3532
407.00	0.3565
408.00	0.3596
409.00	0.3627
410.00	0.3655
411.00	0.3681
412.00	0.3704
413.00	0.3725
414.00	0.3744
415.00	0.3759
416.00	0.3772
417.00	0.3782
418.00	0.3788
419.00	0.3789
420.00	0.3787
421.00	0.3781
422.00	0.3772
423.00	0.3760
424.00	0.3745
425.00	0.3731
426.00	0.3715
427.00	0.3700
428.00	0.3684
429.00	0.3670
430.00	0.3657
431.00	0.3647
432.00	0.3638
433.00	0.3632
434.00	0.3629
435.00	0.3629
436.00	0.3630
437.00	0.3632
438.00	0.3636
439.00	0.3641
440.00	0.3645
441.00	0.3649
442.00	0.3656
443.00	0.3665
444.00	0.3675
445.00	0.3690
446.00	0.3708
447.00	0.3726
448.00	0.3743
449.00	0.3760
450.00	0.3774
451.00	0.3794
452.00	0.3812
453.00	0.3833
454.00	0.3856
455.00	0.3880
456.00	0.3901
457.00	0.3925
458.00	0.3949
459.00	0.3972
460.00	0.3995
461.00	0.4017
462.00	0.4040
463.00	0.4058
464.00	0.4078
465.00	0.4095
466.00	0.4112
467.00	0.4126
468.00	0.4143
469.00	0.4158
470.00	0.4173
471.00	0.4187
472.00	0.4202
473.00	0.4216
474.00	0.4231
475.00	0.4249
476.00	0.4267
477.00	0.4288
478.00	0.4306
479.00	0.4325
480.00	0.4343
481.00	0.4360
482.00	0.4376
483.00	0.4393
484.00	0.4408
485.00	0.4419
486.00	0.4429
487.00	0.4436
488.00	0.4443
489.00	0.4450
490.00	0.4458
491.00	0.4466
492.00	0.4476
493.00	0.4484
494.00	0.4491
495.00	0.4496
496.00	0.4499
497.00	0.4502
498.00	0.4503
499.00	0.4505
500.00	0.4507
501.00	0.4510
502.00	0.4509
503.00	0.4510
504.00	0.4509
505.00	0.4509
506.00	0.4506
507.00	0.4501
508.00	0.4496
509.00	0.4489
510.00	0.4480
511.00	0.4471
512.00	0.4462
513.00	0.4450
514.00	0.4438
515.00	0.4427
516.00	0.4413
517.00	0.4399
518.00	0.4384
519.00	0.4370
520.00	0.4356
521.00	0.4342
522.00	0.4328
523.00	0.4313
524.00	0.4296
525.00	0.4278
526.00	0.4261
527.00	0.4242
528.00	0.4225
529.00	0.4214
530.00	0.4206
531.00	0.4189
532.00	0.4171
533.00	0.4154
534.00	0.4132
535.00	0.4111
536.00	0.4095
537.00	0.4077
538.00	0.4059
539.00	0.4041
540.00	0.4017
541.00	0.3994
542.00	0.3975
543.00	0.3954
544.00	0.3935
545.00	0.3914
546.00	0.3896
547.00	0.3878
548.00	0.3862
549.00	0.3842
550.00	0.3825
551.00	0.3806
552.00	0.3788
553.00	0.3768
554.00	0.3748
555.00	0.3729
556.00	0.3710
557.00	0.3691
558.00	0.3673
559.00	0.3656
560.00	0.3636
561.00	0.3618
562.00	0.3599
563.00	0.3581
564.00	0.3562
565.00	0.3544
566.00	0.3524
567.00	0.3502
568.00	0.3480
569.00	0.3458
570.00	0.3438
571.00	0.3417
572.00	0.3399
573.00	0.3380
574.00	0.3359
575.00	0.3336
576.00	0.3312
577.00	0.3287
578.00	0.3263
579.00	0.3241
580.00	0.3219
581.00	0.3200
582.00	0.3178
583.00	0.3156
584.00	0.3135
585.00	0.3112
586.00	0.3089
587.00	0.3067
588.00	0.3044
589.00	0.3020
590.00	0.2997
591.00	0.2976
592.00	0.2955
593.00	0.2933
594.00	0.2911
595.00	0.2888
596.00	0.2864
597.00	0.2838
598.00	0.2814
599.00	0.2792
600.00	0.2770
601.00	0.2751
602.00	0.2731
603.00	0.2713
604.00	0.2693
605.00	0.2672
606.00	0.2649
607.00	0.2628
608.00	0.2607
609.00	0.2590
610.00	0.2575
611.00	0.2559
612.00	0.2542
613.00	0.2523
614.00	0.2505
615.00	0.2488
616.00	0.2475
617.00	0.2464
618.00	0.2451
619.00	0.2437
620.00	0.2421
621.00	0.2408
622.00	0.2397
623.00	0.2390
624.00	0.2381
625.00	0.2373
626.00	0.2362
627.00	0.2351
628.00	0.2340
629.00	0.2335
630.00	0.2329
631.00	0.2322
632.00	0.2313
633.00	0.2305
634.00	0.2295
635.00	0.2289
636.00	0.2283
637.00	0.2283
638.00	0.2283
639.00	0.2281
640.00	0.2277
641.00	0.2274
642.00	0.2268
643.00	0.2262
644.00	0.2259
645.00	0.2258
646.00	0.2258
647.00	0.2258
648.00	0.2258
649.00	0.2259
650.00	0.2260
651.00	0.2262
652.00	0.2262
653.00	0.2263
654.00	0.2263
655.00	0.2264
656.00	0.2265
657.00	0.2269
658.00	0.2270
659.00	0.2273
660.00	0.2272
661.00	0.2272
662.00	0.2272
663.00	0.2273
664.00	0.2273
665.00	0.2275
666.00	0.2271
667.00	0.2273
668.00	0.2274
669.00	0.2278
670.00	0.2290
671.00	0.2303
672.00	0.2311
673.00	0.2321
674.00	0.2328
675.00	0.2326
676.00	0.2330
677.00	0.2332
678.00	0.2334
679.00	0.2336
680.00	0.2341
681.00	0.2346
682.00	0.2352
683.00	0.2359
684.00	0.2365
685.00	0.2369
686.00	0.2370
687.00	0.2375
688.00	0.2377
689.00	0.2379
690.00	0.2379
691.00	0.2386
692.00	0.2387
693.00	0.2388
694.00	0.2392
695.00	0.2398
696.00	0.2395
697.00	0.2395
698.00	0.2395
699.00	0.2395
700.00	0.2395
701.00	0.2400
702.00	0.2403
703.00	0.2408
704.00	0.2409
705.00	0.2412
706.00	0.2411
707.00	0.2412
708.00	0.2414
709.00	0.2417
710.00	0.2420
711.00	0.2421
712.00	0.2425
713.00	0.2426
714.00	0.2429
715.00	0.2431
716.00	0.2434
717.00	0.2433
718.00	0.2434
719.00	0.2435
720.00	0.2437
721.00	0.2438
722.00	0.2441
723.00	0.2444
724.00	0.2439
725.00	0.2443
726.00	0.2440
727.00	0.2443
728.00	0.2444
729.00	0.2452
730.00	0.2453
731.00	0.2465
732.00	0.2472
733.00	0.2480
734.00	0.2486
735.00	0.2492
736.00	0.2496
737.00	0.2500
738.00	0.2506
739.00	0.2514
740.00	0.2523
741.00	0.2535
742.00	0.2541
743.00	0.2548
744.00	0.2555
745.00	0.2564
746.00	0.2569
747.00	0.2575
748.00	0.2585
749.00	0.2590
750.00	0.2596
751.00	0.2602
752.00	0.2612
753.00	0.2614
754.00	0.2622
755.00	0.2628
756.00	0.2636
757.00	0.2645
758.00	0.2650
759.00	0.2656
760.00	0.2661
761.00	0.2663
762.00	0.2665
763.00	0.2673
764.00	0.2678
765.00	0.2683
766.00	0.2688
767.00	0.2692
768.00	0.2693
769.00	0.2691
770.00	0.2687
771.00	0.2684
772.00	0.2680
773.00	0.2676
774.00	0.2672
775.00	0.2665
776.00	0.2661
777.00	0.2654
778.00	0.2646
779.00	0.2638
780.00	0.2628
781.00	0.2616
782.00	0.2606
783.00	0.2596
784.00	0.2592
785.00	0.2589
786.00	0.2583
787.00	0.2575
788.00	0.2568
789.00	0.2558
790.00	0.2548
791.00	0.2537
792.00	0.2526
793.00	0.2515
794.00	0.2502
795.00	0.2488
796.00	0.2474
797.00	0.2457
798.00	0.2440
799.00	0.2425
800.00	0.2409
801.00	0.2396
802.00	0.2387
803.00	0.2377
804.00	0.2364
805.00	0.2354
806.00	0.2342
807.00	0.2329
808.00	0.2319
809.00	0.2314
810.00	0.2306
811.00	0.2301
812.00	0.2296
813.00	0.2290
814.00	0.2283
815.00	0.2280
816.00	0.2274
817.00	0.2270
818.00	0.2267
819.00	0.2267
820.00	0.2267
821.00	0.2267
822.00	0.2269
823.00	0.2270
824.00	0.2267
825.00	0.2269
826.00	0.2272
827.00	0.2275
828.00	0.2278
829.00	0.2282
830.00	0.2285
831.00	0.2293
832.00	0.2296
833.00	0.2303
834.00	0.2308
835.00	0.2313
836.00	0.2318
837.00	0.2326
838.00	0.2334
839.00	0.2343
840.00	0.2351
841.00	0.2361
842.00	0.2370
843.00	0.2378
844.00	0.2388
845.00	0.2398
846.00	0.2408
847.00	0.2420
848.00	0.2430
849.00	0.2439
850.00	0.2448
851.00	0.2456
852.00	0.2462
853.00	0.2468
854.00	0.2473
855.00	0.2476
856.00	0.2478
857.00	0.2480
858.00	0.2481
859.00	0.2483
860.00	0.2486
861.00	0.2488
862.00	0.2490
863.00	0.2492
864.00	0.2494
865.00	0.2494
866.00	0.2495
867.00	0.2496
868.00	0.2496
869.00	0.2496
870.00	0.2496
871.00	0.2495
872.00	0.2493
873.00	0.2491
874.00	0.2487
875.00	0.2484
876.00	0.2478
877.00	0.2471
878.00	0.2461
879.00	0.2451
880.00	0.2439
881.00	0.2428
882.00	0.2416
883.00	0.2404
884.00	0.2391
885.00	0.2378
886.00	0.2364
887.00	0.2347
888.00	0.2331
889.00	0.2316
890.00	0.2298
891.00	0.2281
892.00	0.2267
893.00	0.2251
894.00	0.2235
895.00	0.2218
896.00	0.2202
897.00	0.2185
898.00	0.2170
899.00	0.2156
900.00	0.2142
901.00	0.2126
902.00	0.2112
903.00	0.2097
904.00	0.2084
905.00	0.2071
906.00	0.2058
907.00	0.2046
908.00	0.2032
909.00	0.2017
910.00	0.2004
911.00	0.1989
912.00	0.1972
913.00	0.1963
914.00	0.1953
915.00	0.1942
916.00	0.1931
917.00	0.1922
918.00	0.1907
919.00	0.1892
920.00	0.1879
921.00	0.1868
922.00	0.1855
923.00	0.1842
924.00	0.1829
925.00	0.1817
926.00	0.1806
927.00	0.1796
928.00	0.1786
929.00	0.1776
930.00	0.1765
931.00	0.1753
932.00	0.1742
933.00	0.1731
934.00	0.1720
935.00	0.1711
936.00	0.1701
937.00	0.1692
938.00	0.1683
939.00	0.1673
940.00	0.1663
941.00	0.1654
942.00	0.1644
943.00	0.1633
944.00	0.1623
945.00	0.1614
946.00	0.1603
947.00	0.1593
948.00	0.1585
949.00	0.1576
950.00	0.1566
951.00	0.1558
952.00	0.1550
953.00	0.1539
954.00	0.1529
955.00	0.1522
956.00	0.1514
957.00	0.1504
958.00	0.1495
959.00	0.1486
960.00	0.1478
961.00	0.1468
962.00	0.1461
963.00	0.1454
964.00	0.1447
965.00	0.1436
966.00	0.1428
967.00	0.1419
968.00	0.1408
969.00	0.1401
970.00	0.1393
971.00	0.1386
972.00	0.1379
973.00	0.1371
974.00	0.1360
975.00	0.1351
976.00	0.1341
977.00	0.1332
978.00	0.1326
979.00	0.1319
980.00	0.1313
981.00	0.1305
982.00	0.1297
983.00	0.1289
984.00	0.1282
985.00	0.1275
986.00	0.1271
987.00	0.1261
988.00	0.1254
989.00	0.1245
990.00	0.1236
991.00	0.1226
992.00	0.1219
993.00	0.1210
994.00	0.1202
995.00	0.1195
996.00	0.1189
997.00	0.1182
998.00	0.1176
999.00	0.1169
1000.00	0.1159
1001.00	0.1151
1002.00	0.1143
1003.00	0.1133
1004.00	0.1126
1005.00	0.1120
1006.00	0.1113
1007.00	0.1107
1008.00	0.1101
1009.00	0.1094
1010.00	0.1089
1011.00	0.1080
1012.00	0.1074
1013.00	0.1067
1014.00	0.1061
1015.00	0.1053
1016.00	0.1045
1017.00	0.1038
1018.00	0.1030
1019.00	0.1024
1020.00	0.1019
1021.00	0.1014
1022.00	0.1009
1023.00	0.1004
1024.00	0.0997
1025.00	0.0988
1026.00	0.0982
1027.00	0.0974
1028.00	0.0969
1029.00	0.0962
1030.00	0.0958
1031.00	0.0952
1032.00	0.0948
1033.00	0.0942
1034.00	0.0939
1035.00	0.0933
1036.00	0.0926
1037.00	0.0920
1038.00	0.0913
1039.00	0.0905
1040.00	0.0899
1041.00	0.0896
1042.00	0.0890
1043.00	0.0887
1044.00	0.0882
1045.00	0.0879
1046.00	0.0873
1047.00	0.0866
1048.00	0.0859
1049.00	0.0854
1050.00	0.0845
1051.00	0.0840
1052.00	0.0836
1053.00	0.0832
1054.00	0.0827
1055.00	0.0825
1056.00	0.0821
1057.00	0.0820
1058.00	0.0819
1059.00	0.0813
1060.00	0.0807
1061.00	0.0803
1062.00	0.0797
1063.00	0.0789
1064.00	0.0785
1065.00	0.0782
1066.00	0.0776
1067.00	0.0772
1068.00	0.0771
1069.00	0.0766
1070.00	0.0762
1071.00	0.0757
1072.00	0.0749
1073.00	0.0742
1074.00	0.0740
1075.00	0.0736
1076.00	0.0735
1077.00	0.0733
1078.00	0.0731
1079.00	0.0726
1080.00	0.0721
1081.00	0.0718
1082.00	0.0713
1083.00	0.0709
1084.00	0.0705
1085.00	0.0703
1086.00	0.0699
1087.00	0.0698
1088.00	0.0693
1089.00	0.0692
1090.00	0.0689
1091.00	0.0686
1092.00	0.0684
1093.00	0.0680
1094.00	0.0676
1095.00	0.0672
1096.00	0.0670
1097.00	0.0667
1098.00	0.0668
1099.00	0.0667
1100.00	0.0668
1101.00	0.0664
1102.00	0.0660
1103.00	0.0655
1104.00	0.0650
1105.00	0.0647
1106.00	0.0643
1107.00	0.0641
1108.00	0.0640
1109.00	0.0638
1110.00	0.0636
1111.00	0.0635
1112.00	0.0632
1113.00	0.0629
1114.00	0.0629
1115.00	0.0625
1116.00	0.0622
1117.00	0.0620
1118.00	0.0618
1119.00	0.0615
1120.00	0.0616
1121.00	0.0615
1122.00	0.0615
1123.00	0.0613
1124.00	0.0611
1125.00	0.0610
1126.00	0.0607
1127.00	0.0605
1128.00	0.0602
1129.00	0.0601
1130.00	0.0598
1131.00	0.0598
1132.00	0.0596
1133.00	0.0596
1134.00	0.0595
1135.00	0.0594
1136.00	0.0593
1137.00	0.0590
1138.00	0.0583
1139.00	0.0582
1140.00	0.0582
1141.00	0.0578
1142.00	0.0576
1143.00	0.0581
1144.00	0.0580
1145.00	0.0576
1146.00	0.0578
1147.00	0.0580
1148.00	0.0580
1149.00	0.0580
1150.00	0.0580
1151.00	0.0579
1152.00	0.0577
1153.00	0.0574
1154.00	0.0573
1155.00	0.0572
1156.00	0.0567
1157.00	0.0569
1158.00	0.0570
1159.00	0.0569
1160.00	0.0570
1161.00	0.0573
1162.00	0.0569
1163.00	0.0568
1164.00	0.0567
1165.00	0.0565
1166.00	0.0565
1167.00	0.0565
1168.00	0.0565
1169.00	0.0566
1170.00	0.0569
1171.00	0.0567
1172.00	0.0564
1173.00	0.0564
1174.00	0.0561
1175.00	0.0559
1176.00	0.0560
1177.00	0.0562
1178.00	0.0560
1179.00	0.0561
1180.00	0.0562
1181.00	0.0562
1182.00	0.0562
1183.00	0.0563
1184.00	0.0565
1185.00	0.0563
1186.00	0.0563
1187.00	0.0565
1188.00	0.0564
1189.00	0.0564
1190.00	0.0563
1191.00	0.0562
1192.00	0.0561
1193.00	0.0560
1194.00	0.0563
1195.00	0.0566
1196.00	0.0565
1197.00	0.0565
1198.00	0.0563
1199.00	0.0560
1200.00	0.0558
1201.00	0.0559
1202.00	0.0556
1203.00	0.0560
1204.00	0.0563
1205.00	0.0564
1206.00	0.0564
1207.00	0.0566
1208.00	0.0567
1209.00	0.0563
1210.00	0.0564
1211.00	0.0564
1212.00	0.0565
1213.00	0.0565
1214.00	0.0566
1215.00	0.0565
1216.00	0.0566
1217.00	0.0567
1218.00	0.0567
1219.00	0.0568
1220.00	0.0568
1221.00	0.0568
1222.00	0.0570
1223.00	0.0571
1224.00	0.0572
1225.00	0.0574
1226.00	0.0575
1227.00	0.0574
1228.00	0.0576
1229.00	0.0577
1230.00	0.0576
1231.00	0.0578
1232.00	0.0581
1233.00	0.0571
1234.00	0.0569
1235.00	0.0572
1236.00	0.0570
1237.00	0.0569
1238.00	0.0579
1239.00	0.0581
1240.00	0.0581
1241.00	0.0582
1242.00	0.0581
1243.00	0.0583
1244.00	0.0584
1245.00	0.0585
1246.00	0.0587
1247.00	0.0588
1248.00	0.0589
1249.00	0.0589
1250.00	0.0589
1251.00	0.0589
1252.00	0.0591
1253.00	0.0590
1254.00	0.0591
1255.00	0.0592
1256.00	0.0590
1257.00	0.0592
1258.00	0.0594
1259.00	0.0595
1260.00	0.0599
1261.00	0.0602
1262.00	0.0604
1263.00	0.0605
1264.00	0.0602
1265.00	0.0604
1266.00	0.0605
1267.00	0.0604
1268.00	0.0605
1269.00	0.0608
1270.00	0.0608
1271.00	0.0609
1272.00	0.0613
1273.00	0.0611
1274.00	0.0617
1275.00	0.0618
1276.00	0.0619
1277.00	0.0621
1278.00	0.0624
1279.00	0.0622
1280.00	0.0622
1281.00	0.0624
1282.00	0.0624
1283.00	0.0626
1284.00	0.0628
1285.00	0.0628
1286.00	0.0628
1287.00	0.0629
1288.00	0.0627
1289.00	0.0629
1290.00	0.0632
1291.00	0.0633
1292.00	0.0636
1293.00	0.0638
1294.00	0.0638
1295.00	0.0639
1296.00	0.0640
1297.00	0.0642
1298.00	0.0647
1299.00	0.0649
1300.00	0.0650
1301.00	0.0652
1302.00	0.0652
1303.00	0.0652
1304.00	0.0654
1305.00	0.0656
1306.00	0.0656
1307.00	0.0657
1308.00	0.0657
1309.00	0.0661
1310.00	0.0661
1311.00	0.0663
1312.00	0.0666
1313.00	0.0666
1314.00	0.0665
1315.00	0.0669
1316.00	0.0671
1317.00	0.0671
1318.00	0.0674
1319.00	0.0675
1320.00	0.0674
1321.00	0.0675
1322.00	0.0678
1323.00	0.0682
1324.00	0.0683
1325.00	0.0685
1326.00	0.0687
1327.00	0.0689
1328.00	0.0689
1329.00	0.0690
1330.00	0.0693
1331.00	0.0694
1332.00	0.0695
1333.00	0.0697
1334.00	0.0701
1335.00	0.0701
1336.00	0.0705
1337.00	0.0708
1338.00	0.0706
1339.00	0.0707
1340.00	0.0710
1341.00	0.0713
1342.00	0.0714
1343.00	0.0720
1344.00	0.0723
1345.00	0.0727
1346.00	0.0726
1347.00	0.0730
1348.00	0.0732
1349.00	0.0734
1350.00	0.0733
1351.00	0.0736
1352.00	0.0737
1353.00	0.0740
1354.00	0.0744
1355.00	0.0744
1356.00	0.0749
1357.00	0.0752
1358.00	0.0756
1359.00	0.0757
1360.00	0.0761
1361.00	0.0763
1362.00	0.0764
1363.00	0.0767
1364.00	0.0769
1365.00	0.0774
1366.00	0.0776
1367.00	0.0778
1368.00	0.0780
1369.00	0.0784
1370.00	0.0783
1371.00	0.0788
1372.00	0.0791
1373.00	0.0792
1374.00	0.0797
1375.00	0.0800
1376.00	0.0802
1377.00	0.0805
1378.00	0.0809
1379.00	0.0808
1380.00	0.0812
1381.00	0.0814
1382.00	0.0813
1383.00	0.0819
1384.00	0.0824
1385.00	0.0826
1386.00	0.0831
1387.00	0.0837
1388.00	0.0837
1389.00	0.0841
1390.00	0.0844
1391.00	0.0845
1392.00	0.0849
1393.00	0.0852
1394.00	0.0852
1395.00	0.0854
1396.00	0.0860
1397.00	0.0861
1398.00	0.0865
1399.00	0.0868
1400.00	0.0872
1401.00	0.0874
1402.00	0.0875
1403.00	0.0878
1404.00	0.0882
1405.00	0.0885
1406.00	0.0888
1407.00	0.0892
1408.00	0.0896
1409.00	0.0900
1410.00	0.0902
1411.00	0.0907
1412.00	0.0907
1413.00	0.0908
1414.00	0.0911
1415.00	0.0915
1416.00	0.0912
1417.00	0.0917
1418.00	0.0920
1419.00	0.0924
1420.00	0.0927
1421.00	0.0935
1422.00	0.0941
1423.00	0.0945
1424.00	0.0946
1425.00	0.0948
1426.00	0.0954
1427.00	0.0956
1428.00	0.0957
1429.00	0.0959
1430.00	0.0966
1431.00	0.0965
1432.00	0.0959
1433.00	0.0963
1434.00	0.0969
1435.00	0.0969
1436.00	0.0975
1437.00	0.0988
1438.00	0.0991
1439.00	0.0994
1440.00	0.0996
1441.00	0.0997
1442.00	0.1001
1443.00	0.1003
1444.00	0.1006
1445.00	0.1011
1446.00	0.1013
1447.00	0.1009
1448.00	0.1014
1449.00	0.1018
1450.00	0.1021
1451.00	0.1029
1452.00	0.1036
1453.00	0.1038
1454.00	0.1041
1455.00	0.1043
1456.00	0.1045
1457.00	0.1051
1458.00	0.1055
1459.00	0.1057
1460.00	0.1060
1461.00	0.1064
1462.00	0.1067
1463.00	0.1069
1464.00	0.1074
1465.00	0.1077
1466.00	0.1081
1467.00	0.1082
1468.00	0.1086
1469.00	0.1090
1470.00	0.1096
1471.00	0.1103
1472.00	0.1107
1473.00	0.1112
1474.00	0.1116
1475.00	0.1117
1476.00	0.1118
1477.00	0.1118
1478.00	0.1111
1479.00	0.1115
1480.00	0.1120
1481.00	0.1122
1482.00	0.1128
1483.00	0.1143
1484.00	0.1148
1485.00	0.1151
1486.00	0.1154
1487.00	0.1155
1488.00	0.1158
1489.00	0.1159
1490.00	0.1160
1491.00	0.1166
1492.00	0.1170
1493.00	0.1172
1494.00	0.1178
1495.00	0.1182
1496.00	0.1187
1497.00	0.1193
1498.00	0.1195
1499.00	0.1200
1500.00	0.1204
1501.00	0.1206
1502.00	0.1210
1503.00	0.1214
1504.00	0.1217
1505.00	0.1221
1506.00	0.1226
1507.00	0.1232
1508.00	0.1234
1509.00	0.1239
1510.00	0.1242
1511.00	0.1247
1512.00	0.1248
1513.00	0.1252
1514.00	0.1258
1515.00	0.1263
1516.00	0.1264
1517.00	0.1271
1518.00	0.1276
1519.00	0.1280
1520.00	0.1283
1521.00	0.1288
1522.00	0.1291
1523.00	0.1296
1524.00	0.1297
1525.00	0.1302
1526.00	0.1306
1527.00	0.1308
1528.00	0.1311
1529.00	0.1314
1530.00	0.1319
1531.00	0.1324
1532.00	0.1329
1533.00	0.1332
1534.00	0.1337
1535.00	0.1339
1536.00	0.1343
1537.00	0.1346
1538.00	0.1348
1539.00	0.1352
1540.00	0.1357
1541.00	0.1360
1542.00	0.1366
1543.00	0.1373
1544.00	0.1377
1545.00	0.1380
1546.00	0.1383
1547.00	0.1387
1548.00	0.1388
1549.00	0.1391
1550.00	0.1395
1551.00	0.1399
1552.00	0.1403
1553.00	0.1406
1554.00	0.1411
1555.00	0.1414
1556.00	0.1417
1557.00	0.1420
1558.00	0.1426
1559.00	0.1430
1560.00	0.1435
1561.00	0.1439
1562.00	0.1441
1563.00	0.1447
1564.00	0.1448
1565.00	0.1454
1566.00	0.1460
1567.00	0.1464
1568.00	0.1467
1569.00	0.1472
1570.00	0.1471
1571.00	0.1475
1572.00	0.1480
1573.00	0.1482
1574.00	0.1491
1575.00	0.1496
1576.00	0.1500
1577.00	0.1506
1578.00	0.1513
1579.00	0.1513
1580.00	0.1518
1581.00	0.1523
1582.00	0.1524
1583.00	0.1528
1584.00	0.1532
1585.00	0.1535
1586.00	0.1539
1587.00	0.1545
1588.00	0.1548
1589.00	0.1554
1590.00	0.1559
1591.00	0.1562
1592.00	0.1566
1593.00	0.1569
1594.00	0.1572
1595.00	0.1577
1596.00	0.1584
1597.00	0.1588
1598.00	0.1593
1599.00	0.1596
1600.00	0.1602
1601.00	0.1604
1602.00	0.1606
1603.00	0.1610
1604.00	0.1613
1605.00	0.1616
1606.00	0.1621
1607.00	0.1625
1608.00	0.1630
1609.00	0.1637
1610.00	0.1639
1611.00	0.1643
1612.00	0.1647
1613.00	0.1652
1614.00	0.1656
1615.00	0.1659
1616.00	0.1663
1617.00	0.1668
1618.00	0.1671
1619.00	0.1674
1620.00	0.1679
1621.00	0.1681
1622.00	0.1684
1623.00	0.1687
1624.00	0.1693
1625.00	0.1698
1626.00	0.1704
1627.00	0.1708
1628.00	0.1711
1629.00	0.1715
1630.00	0.1717
1631.00	0.1718
1632.00	0.1714
1633.00	0.1718
1634.00	0.1720
1635.00	0.1722
1636.00	0.1727
1637.00	0.1739
1638.00	0.1740
1639.00	0.1741
1640.00	0.1745
1641.00	0.1746
1642.00	0.1748
1643.00	0.1750
1644.00	0.1754
1645.00	0.1754
1646.00	0.1753
1647.00	0.1752
1648.00	0.1754
1649.00	0.1752
1650.00	0.1752
1651.00	0.1754
1652.00	0.1752
1653.00	0.1750
1654.00	0.1750
1655.00	0.1750
1656.00	0.1749
1657.00	0.1747
1658.00	0.1751
1659.00	0.1752
1660.00	0.1755
1661.00	0.1758
1662.00	0.1764
1663.00	0.1765
1664.00	0.1767
1665.00	0.1768
1666.00	0.1771
1667.00	0.1772
1668.00	0.1774
1669.00	0.1778
1670.00	0.1783
1671.00	0.1785
1672.00	0.1790
1673.00	0.1794
1674.00	0.1798
1675.00	0.1802
1676.00	0.1808
1677.00	0.1811
1678.00	0.1811
1679.00	0.1813
1680.00	0.1815
1681.00	0.1818
1682.00	0.1820
1683.00	0.1826
1684.00	0.1831
1685.00	0.1835
1686.00	0.1838
1687.00	0.1841
1688.00	0.1844
1689.00	0.1845
1690.00	0.1846
1691.00	0.1846
1692.00	0.1848
1693.00	0.1850
1694.00	0.1853
1695.00	0.1856
1696.00	0.1860
1697.00	0.1865
1698.00	0.1870
1699.00	0.1874
1700.00	0.1875
1701.00	0.1878
1702.00	0.1879
1703.00	0.1879
1704.00	0.1881
1705.00	0.1884
1706.00	0.1887
1707.00	0.1890
1708.00	0.1894
1709.00	0.1898
1710.00	0.1903
1711.00	0.1907
1712.00	0.1913
1713.00	0.1916
1714.00	0.1922
1715.00	0.1926
1716.00	0.1929
1717.00	0.1929
1718.00	0.1930
1719.00	0.1931
1720.00	0.1932
1721.00	0.1934
1722.00	0.1938
1723.00	0.1941
1724.00	0.1943
1725.00	0.1944
1726.00	0.1945
1727.00	0.1946
1728.00	0.1951
1729.00	0.1953
1730.00	0.1957
1731.00	0.1961
1732.00	0.1963
1733.00	0.1966
1734.00	0.1968
1735.00	0.1971
1736.00	0.1975
1737.00	0.1980
1738.00	0.1981
1739.00	0.1985
1740.00	0.1988
1741.00	0.1991
1742.00	0.1993
1743.00	0.1997
1744.00	0.2000
1745.00	0.2002
1746.00	0.2004
1747.00	0.2006
1748.00	0.2008
1749.00	0.2010
1750.00	0.2015
1751.00	0.2018
1752.00	0.2022
1753.00	0.2027
1754.00	0.2030
1755.00	0.2033
1756.00	0.2037
1757.00	0.2040
1758.00	0.2040
1759.00	0.2042
1760.00	0.2042
1761.00	0.2043
1762.00	0.2044
1763.00	0.2048
1764.00	0.2051
1765.00	0.2055
1766.00	0.2057
1767.00	0.2060
1768.00	0.2063
1769.00	0.2066
1770.00	0.2070
1771.00	0.2072
1772.00	0.2075
1773.00	0.2076
1774.00	0.2079
1775.00	0.2081
1776.00	0.2083
1777.00	0.2084
1778.00	0.2086
1779.00	0.2087
1780.00	0.2090
1781.00	0.2094
1782.00	0.2099
1783.00	0.2106
1784.00	0.2109
1785.00	0.2112
1786.00	0.2115
1787.00	0.2116
1788.00	0.2117
1789.00	0.2118
1790.00	0.2119
1791.00	0.2118
1792.00	0.2119
1793.00	0.2120
1794.00	0.2126
1795.00	0.2129
1796.00	0.2134
1797.00	0.2138
1798.00	0.2140
1799.00	0.2140
1800.00	0.2141
1801.00	0.2144
1802.00	0.2144
1803.00	0.2148
1804.00	0.2154
1805.00	0.2156
1806.00	0.2158
1807.00	0.2164
1808.00	0.2166
1809.00	0.2166
1810.00	0.2170
1811.00	0.2171
1812.00	0.2171
1813.00	0.2170
1814.00	0.2170
1815.00	0.2171
1816.00	0.2171
1817.00	0.2172
1818.00	0.2174
1819.00	0.2178
1820.00	0.2178
1821.00	0.2182
1822.00	0.2184
1823.00	0.2187
1824.00	0.2190
1825.00	0.2192
1826.00	0.2196
1827.00	0.2200
1828.00	0.2201
1829.00	0.2203
1830.00	0.2205
1831.00	0.2206
1832.00	0.2208
1833.00	0.2212
1834.00	0.2216
1835.00	0.2219
1836.00	0.2222
1837.00	0.2224
1838.00	0.2226
1839.00	0.2227
1840.00	0.2226
1841.00	0.2223
1842.00	0.2224
1843.00	0.2222
1844.00	0.2223
1845.00	0.2225
1846.00	0.2226
1847.00	0.2225
1848.00	0.2225
1849.00	0.2223
1850.00	0.2224
1851.00	0.2226
1852.00	0.2229
1853.00	0.2232
1854.00	0.2238
1855.00	0.2243
1856.00	0.2248
1857.00	0.2253
1858.00	0.2256
1859.00	0.2257
1860.00	0.2260
1861.00	0.2261
1862.00	0.2260
1863.00	0.2262
1864.00	0.2265
1865.00	0.2264
1866.00	0.2261
1867.00	0.2261
1868.00	0.2263
1869.00	0.2262
1870.00	0.2263
1871.00	0.2267
1872.00	0.2269
1873.00	0.2270
1874.00	0.2271
1875.00	0.2274
1876.00	0.2275
1877.00	0.2278
1878.00	0.2278
1879.00	0.2279
1880.00	0.2281
1881.00	0.2281
1882.00	0.2281
1883.00	0.2282
1884.00	0.2284
1885.00	0.2281
1886.00	0.2280
1887.00	0.2281
1888.00	0.2281
1889.00	0.2281
1890.00	0.2285
1891.00	0.2289
1892.00	0.2288
1893.00	0.2293
1894.00	0.2296
1895.00	0.2295
1896.00	0.2297
1897.00	0.2304
1898.00	0.2308
1899.00	0.2311
1900.00	0.2316
1901.00	0.2321
1902.00	0.2326
1903.00	0.2329
1904.00	0.2333
1905.00	0.2337
1906.00	0.2337
1907.00	0.2334
1908.00	0.2334
1909.00	0.2333
1910.00	0.2332
1911.00	0.2330
1912.00	0.2330
1913.00	0.2327
1914.00	0.2324
1915.00	0.2323
1916.00	0.2324
1917.00	0.2323
1918.00	0.2323
1919.00	0.2325
1920.00	0.2326
1921.00	0.2326
1922.00	0.2329
1923.00	0.2335
1924.00	0.2338
1925.00	0.2338
1926.00	0.2343
1927.00	0.2344
1928.00	0.2344
1929.00	0.2343
1930.00	0.2344
1931.00	0.2345
1932.00	0.2345
1933.00	0.2347
1934.00	0.2350
1935.00	0.2352
1936.00	0.2351
1937.00	0.2355
1938.00	0.2358
1939.00	0.2359
1940.00	0.2361
1941.00	0.2364
1942.00	0.2363
1943.00	0.2362
1944.00	0.2362
1945.00	0.2362
1946.00	0.2360
1947.00	0.2361
1948.00	0.2360
1949.00	0.2361
1950.00	0.2359
1951.00	0.2359
1952.00	0.2359
1953.00	0.2360
1954.00	0.2362
1955.00	0.2365
1956.00	0.2369
1957.00	0.2372
1958.00	0.2371
1959.00	0.2370
1960.00	0.2372
1961.00	0.2371
1962.00	0.2372
1963.00	0.2373
1964.00	0.2373
1965.00	0.2373
1966.00	0.2375
1967.00	0.2377
1968.00	0.2382
1969.00	0.2384
1970.00	0.2386
1971.00	0.2387
1972.00	0.2386
1973.00	0.2383
1974.00	0.2384
1975.00	0.2383
1976.00	0.2382
1977.00	0.2384
1978.00	0.2388
1979.00	0.2390
1980.00	0.2391
1981.00	0.2389
1982.00	0.2390
1983.00	0.2389
1984.00	0.2384
1985.00	0.2386
1986.00	0.2388
1987.00	0.2386
1988.00	0.2386
1989.00	0.2394
1990.00	0.2395
1991.00	0.2397
1992.00	0.2402
1993.00	0.2403
1994.00	0.2403
1995.00	0.2402
1996.00	0.2403
1997.00	0.2403
1998.00	0.2404
1999.00	0.2403
2000.00	0.2408
2001.00	0.2413
2002.00	0.2415
2003.00	0.2413
2004.00	0.2414
2005.00	0.2413
2006.00	0.2410
2007.00	0.2409
2008.00	0.2411
2009.00	0.2413
2010.00	0.2413
2011.00	0.2415
2012.00	0.2415
2013.00	0.2417
2014.00	0.2415
2015.00	0.2415
2016.00	0.2416
2017.00	0.2416
2018.00	0.2416
2019.00	0.2415
2020.00	0.2414
2021.00	0.2413
2022.00	0.2413
2023.00	0.2413
2024.00	0.2417
2025.00	0.2414
2026.00	0.2414
2027.00	0.2415
2028.00	0.2413
2029.00	0.2413
2030.00	0.2419
2031.00	0.2421
2032.00	0.2420
2033.00	0.2423
2034.00	0.2423
2035.00	0.2424
2036.00	0.2425
2037.00	0.2427
2038.00	0.2424
2039.00	0.2424
2040.00	0.2422
2041.00	0.2421
2042.00	0.2419
2043.00	0.2420
2044.00	0.2422
2045.00	0.2425
2046.00	0.2428
2047.00	0.2430
2048.00	0.2429
2049.00	0.2430
2050.00	0.2431
2051.00	0.2432
2052.00	0.2437
2053.00	0.2442
2054.00	0.2441
2055.00	0.2445
2056.00	0.2445
2057.00	0.2446
2058.00	0.2444
2059.00	0.2446
2060.00	0.2443
2061.00	0.2444
2062.00	0.2444
2063.00	0.2447
2064.00	0.2445
2065.00	0.2445
2066.00	0.2445
2067.00	0.2444
2068.00	0.2443
2069.00	0.2444
2070.00	0.2447
2071.00	0.2447
2072.00	0.2447
2073.00	0.2445
2074.00	0.2449
2075.00	0.2447
2076.00	0.2446
2077.00	0.2446
2078.00	0.2450
2079.00	0.2448
2080.00	0.2448
2081.00	0.2448
2082.00	0.2450
2083.00	0.2448
2084.00	0.2452
2085.00	0.2455
2086.00	0.2459
2087.00	0.2460
2088.00	0.2458
2089.00	0.2452
2090.00	0.2454
2091.00	0.2454
2092.00	0.2451
2093.00	0.2450
2094.00	0.2453
2095.00	0.2448
2096.00	0.2446
2097.00	0.2448
2098.00	0.2451
2099.00	0.2452
2100.00	0.2455
2101.00	0.2455
2102.00	0.2453
2103.00	0.2451
2104.00	0.2450
2105.00	0.2448
2106.00	0.2447
2107.00	0.2449
2108.00	0.2447
2109.00	0.2448
2110.00	0.2452
2111.00	0.2452
2112.00	0.2452
2113.00	0.2454
2114.00	0.2454
2115.00	0.2454
2116.00	0.2455
2117.00	0.2454
2118.00	0.2456
2119.00	0.2457
2120.00	0.2456
2121.00	0.2453
2122.00	0.2455
2123.00	0.2456
2124.00	0.2455
2125.00	0.2454
2126.00	0.2457
2127.00	0.2455
2128.00	0.2452
2129.00	0.2449
2130.00	0.2450
2131.00	0.2449
2132.00	0.2449
2133.00	0.2452
2134.00	0.2457
2135.00	0.2458
2136.00	0.2456
2137.00	0.2455
2138.00	0.2454
2139.00	0.2452
2140.00	0.2449
2141.00	0.2451
2142.00	0.2450
2143.00	0.2449
2144.00	0.2449
2145.00	0.2453
2146.00	0.2454
2147.00	0.2454
2148.00	0.2453
2149.00	0.2450
2150.00	0.2444
2151.00	0.2441
2152.00	0.2442
2153.00	0.2442
2154.00	0.2442
2155.00	0.2445
2156.00	0.2446
2157.00	0.2445
2158.00	0.2446
2159.00	0.2446
2160.00	0.2445
2161.00	0.2443
2162.00	0.2442
2163.00	0.2444
2164.00	0.2445
2165.00	0.2451
2166.00	0.2455
2167.00	0.2454
2168.00	0.2453
2169.00	0.2452
2170.00	0.2447
2171.00	0.2447
2172.00	0.2447
2173.00	0.2447
2174.00	0.2448
2175.00	0.2447
2176.00	0.2446
2177.00	0.2447
2178.00	0.2446
2179.00	0.2444
2180.00	0.2448
2181.00	0.2447
2182.00	0.2448
2183.00	0.2448
2184.00	0.2452
2185.00	0.2449
2186.00	0.2448
2187.00	0.2444
2188.00	0.2446
2189.00	0.2447
2190.00	0.2450
2191.00	0.2449
2192.00	0.2447
2193.00	0.2443
2194.00	0.2438
2195.00	0.2436
2196.00	0.2434
2197.00	0.2442
2198.00	0.2442
2199.00	0.2446
2200.00	0.2447
2201.00	0.2449
2202.00	0.2448
2203.00	0.2449
2204.00	0.2446
2205.00	0.2445
2206.00	0.2444
2207.00	0.2440
2208.00	0.2437
2209.00	0.2437
2210.00	0.2437
2211.00	0.2438
2212.00	0.2436
2213.00	0.2434
2214.00	0.2434
2215.00	0.2433
2216.00	0.2434
2217.00	0.2436
2218.00	0.2438
2219.00	0.2441
2220.00	0.2437
2221.00	0.2430
2222.00	0.2428
2223.00	0.2425
2224.00	0.2419
2225.00	0.2420
2226.00	0.2425
2227.00	0.2423
2228.00	0.2423
2229.00	0.2425
2230.00	0.2423
2231.00	0.2420
2232.00	0.2422
2233.00	0.2421
2234.00	0.2421
2235.00	0.2423
2236.00	0.2424
2237.00	0.2422
2238.00	0.2419
2239.00	0.2422
2240.00	0.2421
2241.00	0.2422
2242.00	0.2422
2243.00	0.2429
2244.00	0.2427
2245.00	0.2425
2246.00	0.2422
2247.00	0.2419
2248.00	0.2415
2249.00	0.2414
2250.00	0.2413
2251.00	0.2413
2252.00	0.2415
2253.00	0.2414
2254.00	0.2411
2255.00	0.2408
2256.00	0.2411
2257.00	0.2413
2258.00	0.2412
2259.00	0.2414
2260.00	0.2419
2261.00	0.2417
2262.00	0.2413
2263.00	0.2416
2264.00	0.2418
2265.00	0.2415
2266.00	0.2418
2267.00	0.2419
2268.00	0.2419
2269.00	0.2418
2270.00	0.2419
2271.00	0.2415
2272.00	0.2416
2273.00	0.2413
2274.00	0.2412
2275.00	0.2412
2276.00	0.2413
2277.00	0.2412
2278.00	0.2410
2279.00	0.2410
2280.00	0.2406
2281.00	0.2403
2282.00	0.2401
2283.00	0.2401
2284.00	0.2397
2285.00	0.2399
2286.00	0.2400
2287.00	0.2401
2288.00	0.2399
2289.00	0.2402
2290.00	0.2399
2291.00	0.2397
2292.00	0.2396
2293.00	0.2400
2294.00	0.2398
2295.00	0.2403
2296.00	0.2405
2297.00	0.2406
2298.00	0.2402
2299.00	0.2400
2300.00	0.2398
2301.00	0.2398
2302.00	0.2397
2303.00	0.2396
2304.00	0.2397
2305.00	0.2396
2306.00	0.2396
2307.00	0.2397
2308.00	0.2398
2309.00	0.2395
2310.00	0.2393
2311.00	0.2392
2312.00	0.2391
2313.00	0.2387
2314.00	0.2386
2315.00	0.2385
2316.00	0.2385
2317.00	0.2382
2318.00	0.2384
2319.00	0.2386
2320.00	0.2388
2321.00	0.2387
2322.00	0.2386
2323.00	0.2387
2324.00	0.2386
2325.00	0.2382
2326.00	0.2383
2327.00	0.2381
2328.00	0.2377
2329.00	0.2377
2330.00	0.2377
2331.00	0.2377
2332.00	0.2377
2333.00	0.2381
2334.00	0.2379
2335.00	0.2379
2336.00	0.2375
2337.00	0.2374
2338.00	0.2369
2339.00	0.2369
2340.00	0.2369
2341.00	0.2368
2342.00	0.2370
2343.00	0.2371
2344.00	0.2370
2345.00	0.2368
2346.00	0.2367
2347.00	0.2364
2348.00	0.2362
2349.00	0.2362
2350.00	0.2362
2351.00	0.2363
2352.00	0.2369
2353.00	0.2370
2354.00	0.2371
2355.00	0.2371
2356.00	0.2370
2357.00	0.2366
2358.00	0.2368
2359.00	0.2368
2360.00	0.2367
2361.00	0.2366
2362.00	0.2366
2363.00	0.2366
2364.00	0.2361
2365.00	0.2360
2366.00	0.2363
2367.00	0.2364
2368.00	0.2361
2369.00	0.2363
2370.00	0.2364
2371.00	0.2362
2372.00	0.2356
2373.00	0.2358
2374.00	0.2356
2375.00	0.2355
2376.00	0.2346
2377.00	0.2350
2378.00	0.2347
2379.00	0.2347
2380.00	0.2345
2381.00	0.2347
2382.00	0.2344
2383.00	0.2345
2384.00	0.2343
2385.00	0.2344
2386.00	0.2344
2387.00	0.2348
2388.00	0.2347
2389.00	0.2348
2390.00	0.2348
2391.00	0.2345
2392.00	0.2338
2393.00	0.2335
2394.00	0.2331
2395.00	0.2331
2396.00	0.2337
2397.00	0.2343
2398.00	0.2343
2399.00	0.2349
2400.00	0.2347
2401.00	0.2342
2402.00	0.2336
2403.00	0.2334
2404.00	0.2328
2405.00	0.2327
2406.00	0.2331
2407.00	0.2330
2408.00	0.2332
2409.00	0.2336
2410.00	0.2337
2411.00	0.2333
2412.00	0.2333
2413.00	0.2334
2414.00	0.2331
2415.00	0.2330
2416.00	0.2328
2417.00	0.2330
2418.00	0.2328
2419.00	0.2329
2420.00	0.2323
2421.00	0.2321
2422.00	0.2318
2423.00	0.2315
2424.00	0.2315
2425.00	0.2314
2426.00	0.2316
2427.00	0.2313
2428.00	0.2313
2429.00	0.2307
2430.00	0.2310
2431.00	0.2308
2432.00	0.2306
2433.00	0.2305
2434.00	0.2303
2435.00	0.2300
2436.00	0.2301
2437.00	0.2304
2438.00	0.2306
2439.00	0.2309
2440.00	0.2314
2441.00	0.2315
2442.00	0.2315
2443.00	0.2312
2444.00	0.2312
2445.00	0.2307
2446.00	0.2304
2447.00	0.2300
2448.00	0.2300
2449.00	0.2302
2450.00	0.2302
2451.00	0.2307
2452.00	0.2316
2453.00	0.2315
2454.00	0.2311
2455.00	0.2311
2456.00	0.2302
2457.00	0.2297
2458.00	0.2300
2459.00	0.2301
2460.00	0.2301
2461.00	0.2303
2462.00	0.2301
2463.00	0.2298
2464.00	0.2292
2465.00	0.2285
2466.00	0.2283
2467.00	0.2280
2468.00	0.2280
2469.00	0.2285
2470.00	0.2289
2471.00	0.2291
2472.00	0.2291
2473.00	0.2290
2474.00	0.2289
2475.00	0.2288
2476.00	0.2286
2477.00	0.2283
2478.00	0.2280
2479.00	0.2278
2480.00	0.2277
2481.00	0.2270
2482.00	0.2269
2483.00	0.2265
2484.00	0.2259
2485.00	0.2259
2486.00	0.2266
2487.00	0.2269
2488.00	0.2275
2489.00	0.2281
2490.00	0.2279
2491.00	0.2273
2492.00	0.2272
2493.00	0.2266
2494.00	0.2265
2495.00	0.2265
2496.00	0.2271
2497.00	0.2270
2498.00	0.2264
2499.00	0.2258
2500.00	0.2255
2501.00	0.2252
2502.00	0.2248
2503.00	0.2243
2504.00	0.2244
2505.00	0.2244
2506.00	0.2247
2507.00	0.2247
2508.00	0.2245
2509.00	0.2245
2510.00	0.2246
2511.00	0.2248
2512.00	0.2248
2513.00	0.2244
2514.00	0.2245
2515.00	0.2244
2516.00	0.2243
2517.00	0.2244
2518.00	0.2245
2519.00	0.2244
2520.00	0.2242
2521.00	0.2242
2522.00	0.2241
2523.00	0.2237
2524.00	0.2234
2525.00	0.2228
2526.00	0.2223
2527.00	0.2220
2528.00	0.2218
2529.00	0.2218
2530.00	0.2216
2531.00	0.2215
2532.00	0.2216
2533.00	0.2218
2534.00	0.2220
2535.00	0.2220
2536.00	0.2220
2537.00	0.2223
2538.00	0.2225
2539.00	0.2226
2540.00	0.2228
2541.00	0.2225
2542.00	0.2222
2543.00	0.2218
2544.00	0.2213
2545.00	0.2207
2546.00	0.2202
2547.00	0.2197
2548.00	0.2194
2549.00	0.2195
2550.00	0.2195
2551.00	0.2195
2552.00	0.2194
2553.00	0.2193
2554.00	0.2190
2555.00	0.2192
2556.00	0.2191
2557.00	0.2192
2558.00	0.2194
2559.00	0.2196
2560.00	0.2203
2561.00	0.2210
2562.00	0.2213
2563.00	0.2212
2564.00	0.2212
2565.00	0.2212
2566.00	0.2212
2567.00	0.2206
2568.00	0.2200
2569.00	0.2195
2570.00	0.2199
2571.00	0.2197
2572.00	0.2198
2573.00	0.2207
2574.00	0.2213
2575.00	0.2218
2576.00	0.2221
2577.00	0.2218
2578.00	0.2225
2579.00	0.2225
2580.00	0.2220
2581.00	0.2215
2582.00	0.2213
2583.00	0.2204
2584.00	0.2196
2585.00	0.2184
2586.00	0.2176
2587.00	0.2171
2588.00	0.2168
2589.00	0.2167
2590.00	0.2170
2591.00	0.2176
2592.00	0.2180
2593.00	0.2186
2594.00	0.2186
2595.00	0.2189
2596.00	0.2188
2597.00	0.2189
2598.00	0.2190
2599.00	0.2194
2600.00	0.2193
2601.00	0.2189
2602.00	0.2189
2603.00	0.2185
2604.00	0.2181
2605.00	0.2167
2606.00	0.2157
2607.00	0.2149
2608.00	0.2148
2609.00	0.2147
2610.00	0.2148
2611.00	0.2146
2612.00	0.2154
2613.00	0.2164
2614.00	0.2166
2615.00	0.2172
2616.00	0.2169
2617.00	0.2169
2618.00	0.2170
2619.00	0.2169
2620.00	0.2159
2621.00	0.2155
2622.00	0.2151
2623.00	0.2147
2624.00	0.2144
2625.00	0.2145
2626.00	0.2144
2627.00	0.2145
2628.00	0.2148
2629.00	0.2145
2630.00	0.2145
2631.00	0.2146
2632.00	0.2142
2633.00	0.2141
2634.00	0.2140
2635.00	0.2136
2636.00	0.2137
2637.00	0.2136
2638.00	0.2133
2639.00	0.2133
2640.00	0.2131
2641.00	0.2128
2642.00	0.2125
2643.00	0.2124
2644.00	0.2125
2645.00	0.2122
2646.00	0.2120
2647.00	0.2122
2648.00	0.2123
2649.00	0.2123
2650.00	0.2127
2651.00	0.2127
2652.00	0.2131
2653.00	0.2136
2654.00	0.2136
2655.00	0.2143
2656.00	0.2149
2657.00	0.2148
2658.00	0.2148
2659.00	0.2148
2660.00	0.2150
2661.00	0.2149
2662.00	0.2137
2663.00	0.2136
2664.00	0.2131
2665.00	0.2127
2666.00	0.2125
2667.00	0.2108
2668.00	0.2110
2669.00	0.2110
2670.00	0.2115
2671.00	0.2127
2672.00	0.2127
2673.00	0.2135
2674.00	0.2155
2675.00	0.2151
2676.00	0.2160
2677.00	0.2154
2678.00	0.2144
2679.00	0.2144
2680.00	0.2143
2681.00	0.2141
2682.00	0.2149
2683.00	0.2156
2684.00	0.2171
2685.00	0.2185
2686.00	0.2200
2687.00	0.2213
2688.00	0.2229
2689.00	0.2240
2690.00	0.2262
2691.00	0.2290
2692.00	0.2328
2693.00	0.2362
2694.00	0.2384
2695.00	0.2406
2696.00	0.2446
2697.00	0.2493
2698.00	0.2533
2699.00	0.2567
2700.00	0.2624
2701.00	0.2665
2702.00	0.2713
2703.00	0.2764
2704.00	0.2818
2705.00	0.2860
2706.00	0.2887
2707.00	0.2921
2708.00	0.2964
2709.00	0.2987
2710.00	0.3030
2711.00	0.3062
2712.00	0.3093
2713.00	0.3125
2714.00	0.3164
2715.00	0.3214
2716.00	0.3255
2717.00	0.3273
2718.00	0.3298
2719.00	0.3304
2720.00	0.3332
2721.00	0.3338
2722.00	0.3340
2723.00	0.3357
2724.00	0.3360
2725.00	0.3344
2726.00	0.3312
2727.00	0.3271
2728.00	0.3261
2729.00	0.3255
2730.00	0.3234
2731.00	0.3211
2732.00	0.3189
2733.00	0.3168
2734.00	0.3130
2735.00	0.3093
2736.00	0.3061
2737.00	0.3024
2738.00	0.3022
2739.00	0.3001
2740.00	0.2940
2741.00	0.2903
2742.00	0.2868
2743.00	0.2829
2744.00	0.2795
2745.00	0.2770
2746.00	0.2733
2747.00	0.2709
2748.00	0.2692
2749.00	0.2663
2750.00	0.2630
2751.00	0.2609
2752.00	0.2599
2753.00	0.2564
2754.00	0.2542
2755.00	0.2509
2756.00	0.2480
2757.00	0.2451
2758.00	0.2418
2759.00	0.2383
2760.00	0.2344
2761.00	0.2330
2762.00	0.2316
2763.00	0.2295
2764.00	0.2273
2765.00	0.2257
2766.00	0.2239
2767.00	0.2226
2768.00	0.2221
2769.00	0.2210
2770.00	0.2205
2771.00	0.2201
2772.00	0.2178
2773.00	0.2167
2774.00	0.2147
2775.00	0.2141
2776.00	0.2128
2777.00	0.2124
2778.00	0.2110
2779.00	0.2099
2780.00	0.2095
2781.00	0.2078
2782.00	0.2066
2783.00	0.2066
2784.00	0.2059
2785.00	0.2054
2786.00	0.2053
2787.00	0.2052
2788.00	0.2046
2789.00	0.2046
2790.00	0.2041
2791.00	0.2032
2792.00	0.2031
2793.00	0.2029
2794.00	0.2024
2795.00	0.2017
2796.00	0.2014
2797.00	0.2004
2798.00	0.1996
2799.00	0.1991
2800.00	0.1985
2801.00	0.1979
2802.00	0.1977
2803.00	0.1972
2804.00	0.1967
2805.00	0.1965
2806.00	0.1961
2807.00	0.1958
2808.00	0.1960
2809.00	0.1957
2810.00	0.1957
2811.00	0.1954
2812.00	0.1953
2813.00	0.1951
2814.00	0.1949
2815.00	0.1948
2816.00	0.1943
2817.00	0.1942
2818.00	0.1943
2819.00	0.1941
2820.00	0.1944
2821.00	0.1941
2822.00	0.1940
2823.00	0.1940
2824.00	0.1941
2825.00	0.1940
2826.00	0.1941
2827.00	0.1943
2828.00	0.1944
2829.00	0.1943
2830.00	0.1940
2831.00	0.1937
2832.00	0.1939
2833.00	0.1939
2834.00	0.1938
2835.00	0.1937
2836.00	0.1938
2837.00	0.1937
2838.00	0.1936
2839.00	0.1935
2840.00	0.1933
2841.00	0.1935
2842.00	0.1935
2843.00	0.1932
2844.00	0.1933
2845.00	0.1934
2846.00	0.1933
2847.00	0.1932
2848.00	0.1931
2849.00	0.1931
2850.00	0.1931
2851.00	0.1932
2852.00	0.1930
2853.00	0.1930
2854.00	0.1932
2855.00	0.1932
2856.00	0.1931
2857.00	0.1931
2858.00	0.1932
2859.00	0.1931
2860.00	0.1931
2861.00	0.1931
2862.00	0.1930
2863.00	0.1929
2864.00	0.1927
2865.00	0.1924
2866.00	0.1925
2867.00	0.1924
2868.00	0.1923
2869.00	0.1923
2870.00	0.1924
2871.00	0.1925
2872.00	0.1923
2873.00	0.1924
2874.00	0.1924
2875.00	0.1924
2876.00	0.1926
2877.00	0.1924
2878.00	0.1923
2879.00	0.1923
2880.00	0.1922
2881.00	0.1921
2882.00	0.1920
2883.00	0.1922
2884.00	0.1921
2885.00	0.1920
2886.00	0.1920
2887.00	0.1920
2888.00	0.1920
2889.00	0.1918
2890.00	0.1916
2891.00	0.1916
2892.00	0.1914
2893.00	0.1914
2894.00	0.1913
2895.00	0.1911
2896.00	0.1908
2897.00	0.1907
2898.00	0.1907
2899.00	0.1907
2900.00	0.1910
2901.00	0.1911
2902.00	0.1912
2903.00	0.1913
2904.00	0.1912
2905.00	0.1909
2906.00	0.1908
2907.00	0.1911
2908.00	0.1909
2909.00	0.1909
2910.00	0.1907
2911.00	0.1904
2912.00	0.1903
2913.00	0.1900
2914.00	0.1897
2915.00	0.1897
2916.00	0.1898
2917.00	0.1900
2918.00	0.1897
2919.00	0.1897
2920.00	0.1895
2921.00	0.1892
2922.00	0.1892
2923.00	0.1892
2924.00	0.1891
2925.00	0.1891
2926.00	0.1889
2927.00	0.1889
2928.00	0.1889
2929.00	0.1887
2930.00	0.1885
2931.00	0.1885
2932.00	0.1888
2933.00	0.1886
2934.00	0.1884
2935.00	0.1884
2936.00	0.1883
2937.00	0.1882
2938.00	0.1878
2939.00	0.1872
2940.00	0.1874
2941.00	0.1877
2942.00	0.1876
2943.00	0.1875
2944.00	0.1877
2945.00	0.1875
2946.00	0.1873
2947.00	0.1873
2948.00	0.1872
2949.00	0.1872
2950.00	0.1874
2951.00	0.1871
2952.00	0.1868
2953.00	0.1867
2954.00	0.1868
2955.00	0.1867
2956.00	0.1866
2957.00	0.1868
2958.00	0.1868
2959.00	0.1866
2960.00	0.1865
2961.00	0.1863
2962.00	0.1865
2963.00	0.1864
2964.00	0.1865
2965.00	0.1861
2966.00	0.1860
2967.00	0.1861
2968.00	0.1860
2969.00	0.1856
2970.00	0.1858
2971.00	0.1859
2972.00	0.1862
2973.00	0.1862
2974.00	0.1864
2975.00	0.1862
2976.00	0.1861
2977.00	0.1860
2978.00	0.1857
2979.00	0.1857
2980.00	0.1855
2981.00	0.1853
2982.00	0.1850
2983.00	0.1849
2984.00	0.1846
2985.00	0.1844
2986.00	0.1844
2987.00	0.1843
2988.00	0.1839
2989.00	0.1840
2990.00	0.1838
2991.00	0.1842
2992.00	0.1844
2993.00	0.1846
2994.00	0.1842
2995.00	0.1842
2996.00	0.1848
2997.00	0.1853
2998.00	0.1861
2999.00	0.1870
3000.00	0.1874
3001.00	0.1876
3002.00	0.1881
3003.00	0.1883
3004.00	0.1888
3005.00	0.1889
3006.00	0.1891
3007.00	0.1894
3008.00	0.1898
3009.00	0.1900
3010.00	0.1898
3011.00	0.1898
3012.00	0.1897
3013.00	0.1894
3014.00	0.1894
3015.00	0.1895
3016.00	0.1894
3017.00	0.1892
3018.00	0.1889
3019.00	0.1888
3020.00	0.1887
3021.00	0.1885
3022.00	0.1885
3023.00	0.1884
3024.00	0.1883
3025.00	0.1882
3026.00	0.1881
3027.00	0.1882
3028.00	0.1881
3029.00	0.1878
3030.00	0.1880
3031.00	0.1880
3032.00	0.1879
3033.00	0.1877
3034.00	0.1878
3035.00	0.1877
3036.00	0.1875
3037.00	0.1874
3038.00	0.1873
3039.00	0.1873
3040.00	0.1871
3041.00	0.1868
3042.00	0.1868
3043.00	0.1868
3044.00	0.1867
3045.00	0.1865
3046.00	0.1866
3047.00	0.1863
3048.00	0.1860
3049.00	0.1859
3050.00	0.1860
3051.00	0.1859
3052.00	0.1860
3053.00	0.1858
3054.00	0.1859
3055.00	0.1862
3056.00	0.1862
3057.00	0.1862
3058.00	0.1863
3059.00	0.1863
3060.00	0.1864
3061.00	0.1862
3062.00	0.1864
3063.00	0.1862
3064.00	0.1862
3065.00	0.1863
3066.00	0.1862
3067.00	0.1863
3068.00	0.1862
3069.00	0.1861
3070.00	0.1864
3071.00	0.1862
3072.00	0.1861
3073.00	0.1859
3074.00	0.1859
3075.00	0.1858
3076.00	0.1858
3077.00	0.1857
3078.00	0.1857
3079.00	0.1855
3080.00	0.1856
3081.00	0.1856
3082.00	0.1856
3083.00	0.1855
3084.00	0.1850
3085.00	0.1850
3086.00	0.1848
3087.00	0.1845
3088.00	0.1846
3089.00	0.1843
3090.00	0.1842
3091.00	0.1840
3092.00	0.1842
3093.00	0.1840
3094.00	0.1839
3095.00	0.1838
3096.00	0.1835
3097.00	0.1834
3098.00	0.1832
3099.00	0.1830
3100.00	0.1830
3101.00	0.1831
3102.00	0.1829
3103.00	0.1830
3104.00	0.1830
3105.00	0.1829
3106.00	0.1829
3107.00	0.1827
3108.00	0.1827
3109.00	0.1825
3110.00	0.1822
3111.00	0.1820
3112.00	0.1818
3113.00	0.1817
3114.00	0.1816
3115.00	0.1815
3116.00	0.1814
3117.00	0.1812
3118.00	0.1810
3119.00	0.1809
3120.00	0.1806
3121.00	0.1803
3122.00	0.1800
3123.00	0.1799
3124.00	0.1797
3125.00	0.1793
3126.00	0.1792
3127.00	0.1791
3128.00	0.1791
3129.00	0.1788
3130.00	0.1790
3131.00	0.1787
3132.00	0.1787
3133.00	0.1788
3134.00	0.1787
3135.00	0.1783
3136.00	0.1783
3137.00	0.1784
3138.00	0.1783
3139.00	0.1782
3140.00	0.1781
3141.00	0.1781
3142.00	0.1781
3143.00	0.1780
3144.00	0.1778
3145.00	0.1782
3146.00	0.1784
3147.00	0.1779
3148.00	0.1780
3149.00	0.1781
3150.00	0.1778
3151.00	0.1776
3152.00	0.1774
3153.00	0.1777
3154.00	0.1773
3155.00	0.1770
3156.00	0.1764
3157.00	0.1761
3158.00	0.1762
3159.00	0.1763
3160.00	0.1762
3161.00	0.1764
3162.00	0.1763
3163.00	0.1760
3164.00	0.1760
3165.00	0.1761
3166.00	0.1760
3167.00	0.1758
3168.00	0.1756
3169.00	0.1754
3170.00	0.1748
3171.00	0.1751
3172.00	0.1753
3173.00	0.1762
3174.00	0.1763
3175.00	0.1764
3176.00	0.1762
3177.00	0.1759
3178.00	0.1756
3179.00	0.1749
3180.00	0.1750
3181.00	0.1748
3182.00	0.1746
3183.00	0.1744
3184.00	0.1748
3185.00	0.1748
3186.00	0.1752
3187.00	0.1753
3188.00	0.1751
3189.00	0.1760
3190.00	0.1756
3191.00	0.1759
3192.00	0.1755
3193.00	0.1752
3194.00	0.1756
3195.00	0.1755
3196.00	0.1756
3197.00	0.1754
3198.00	0.1761
3199.00	0.1760
3200.00	0.1755
3201.00	0.1753
3202.00	0.1749
3203.00	0.1748
3204.00	0.1743
3205.00	0.1736
3206.00	0.1719
3207.00	0.1717
3208.00	0.1708
3209.00	0.1712
3210.00	0.1711
3211.00	0.1711
3212.00	0.1717
3213.00	0.1709
3214.00	0.1706
3215.00	0.1699
3216.00	0.1704
3217.00	0.1706
3218.00	0.1703
3219.00	0.1707
3220.00	0.1711
3221.00	0.1713
3222.00	0.1720
3223.00	0.1734
3224.00	0.1735
3225.00	0.1752
3226.00	0.1750
3227.00	0.1753
3228.00	0.1756
3229.00	0.1747
3230.00	0.1753
3231.00	0.1757
3232.00	0.1753
3233.00	0.1740
3234.00	0.1744
3235.00	0.1746
3236.00	0.1738
3237.00	0.1732
3238.00	0.1727
3239.00	0.1720
3240.00	0.1707
3241.00	0.1704
3242.00	0.1684
3243.00	0.1682
3244.00	0.1677
3245.00	0.1664
3246.00	0.1657
3247.00	0.1655
3248.00	0.1659
3249.00	0.1667
3250.00	0.1673
3251.00	0.1671
3252.00	0.1667
3253.00	0.1677
3254.00	0.1680
3255.00	0.1687
3256.00	0.1693
3257.00	0.1692
3258.00	0.1693
3259.00	0.1710
3260.00	0.1704
3261.00	0.1712
3262.00	0.1705
3263.00	0.1714
3264.00	0.1722
3265.00	0.1709
3266.00	0.1698
3267.00	0.1682
3268.00	0.1664
3269.00	0.1645
3270.00	0.1640
3271.00	0.1625
3272.00	0.1608
3273.00	0.1601
3274.00	0.1609
3275.00	0.1601
3276.00	0.1593
3277.00	0.1574
3278.00	0.1588
3279.00	0.1599
3280.00	0.1592
3281.00	0.1590
3282.00	0.1600
3283.00	0.1601
3284.00	0.1619
3285.00	0.1653
3286.00	0.1675
3287.00	0.1670
3288.00	0.1661
3289.00	0.1690
3290.00	0.1683
3291.00	0.1651
3292.00	0.1685
3293.00	0.1708
3294.00	0.1757
3295.00	0.1765
3296.00	0.1792
3297.00	0.1825
3298.00	0.1849
3299.00	0.1869
3300.00	0.1902
