"20-30mM-1_Toluene20mM - RawData"
"Wavelength nm."	"Abs."
300.00	0.1367
301.00	0.1372
302.00	0.1374
303.00	0.1376
304.00	0.1375
305.00	0.1377
306.00	0.1377
307.00	0.1380
308.00	0.1388
309.00	0.1397
310.00	0.1402
311.00	0.1407
312.00	0.1417
313.00	0.1426
314.00	0.1437
315.00	0.1454
316.00	0.1474
317.00	0.1492
318.00	0.1510
319.00	0.1530
320.00	0.1546
321.00	0.1563
322.00	0.1579
323.00	0.1598
324.00	0.1613
325.00	0.1632
326.00	0.1651
327.00	0.1671
328.00	0.1689
329.00	0.1708
330.00	0.1727
331.00	0.1742
332.00	0.1755
333.00	0.1774
334.00	0.1794
335.00	0.1817
336.00	0.1845
337.00	0.1875
338.00	0.1899
339.00	0.1924
340.00	0.1949
341.00	0.1969
342.00	0.1989
343.00	0.2010
344.00	0.2028
345.00	0.2048
346.00	0.2068
347.00	0.2087
348.00	0.2105
349.00	0.2122
350.00	0.2137
351.00	0.2156
352.00	0.2174
353.00	0.2192
354.00	0.2208
355.00	0.2223
356.00	0.2237
357.00	0.2250
358.00	0.2263
359.00	0.2278
360.00	0.2293
361.00	0.2306
362.00	0.2314
363.00	0.2332
364.00	0.2351
365.00	0.2372
366.00	0.2395
367.00	0.2424
368.00	0.2443
369.00	0.2465
370.00	0.2487
371.00	0.2515
372.00	0.2534
373.00	0.2554
374.00	0.2574
375.00	0.2592
376.00	0.2606
377.00	0.2630
378.00	0.2655
379.00	0.2681
380.00	0.2712
381.00	0.2743
382.00	0.2773
383.00	0.2808
384.00	0.2842
385.00	0.2876
386.00	0.2911
387.00	0.2949
388.00	0.2983
389.00	0.3016
390.00	0.3049
391.00	0.3082
392.00	0.3114
393.00	0.3145
394.00	0.3176
395.00	0.3206
396.00	0.3233
397.00	0.3261
398.00	0.3286
399.00	0.3313
400.00	0.3341
401.00	0.3371
402.00	0.3401
403.00	0.3435
404.00	0.3467
405.00	0.3500
406.00	0.3532
407.00	0.3565
408.00	0.3596
409.00	0.3627
410.00	0.3655
411.00	0.3681
412.00	0.3704
413.00	0.3725
414.00	0.3744
415.00	0.3759
416.00	0.3772
417.00	0.3782
418.00	0.3788
419.00	0.3789
420.00	0.3787
421.00	0.3781
422.00	0.3772
423.00	0.3760
424.00	0.3745
425.00	0.3731
426.00	0.3715
427.00	0.3700
428.00	0.3684
429.00	0.3670
430.00	0.3657
431.00	0.3647
432.00	0.3638
433.00	0.3632
434.00	0.3629
435.00	0.3629
436.00	0.3630
437.00	0.3632
438.00	0.3636
439.00	0.3641
440.00	0.3645
441.00	0.3649
442.00	0.3656
443.00	0.3665
444.00	0.3675
445.00	0.3690
446.00	0.3708
447.00	0.3726
448.00	0.3743
449.00	0.3760
450.00	0.3774
451.00	0.3794
452.00	0.3812
453.00	0.3833
454.00	0.3856
455.00	0.3880
456.00	0.3901
457.00	0.3925
458.00	0.3949
459.00	0.3972
460.00	0.3995
461.00	0.4017
462.00	0.4040
463.00	0.4058
464.00	0.4078
465.00	0.4095
466.00	0.4112
467.00	0.4126
468.00	0.4143
469.00	0.4158
470.00	0.4173
471.00	0.4187
472.00	0.4202
473.00	0.4216
474.00	0.4231
475.00	0.4249
476.00	0.4267
477.00	0.4288
478.00	0.4306
479.00	0.4325
480.00	0.4343
481.00	0.4360
482.00	0.4376
483.00	0.4393
484.00	0.4408
485.00	0.4419
486.00	0.4429
487.00	0.4436
488.00	0.4443
489.00	0.4450
490.00	0.4458
491.00	0.4466
492.00	0.4476
493.00	0.4484
494.00	0.4491
495.00	0.4496
496.00	0.4499
497.00	0.4502
498.00	0.4503
499.00	0.4505
500.00	0.4507
501.00	0.4510
502.00	0.4509
503.00	0.4510
504.00	0.4509
505.00	0.4509
506.00	0.4506
507.00	0.4501
508.00	0.4496
509.00	0.4489
510.00	0.4480
511.00	0.4471
512.00	0.4462
513.00	0.4450
514.00	0.4438
515.00	0.4427
516.00	0.4413
517.00	0.4399
518.00	0.4384
519.00	0.4370
520.00	0.4356
521.00	0.4342
522.00	0.4328
523.00	0.4313
524.00	0.4296
525.00	0.4278
526.00	0.4261
527.00	0.4242
528.00	0.4225
529.00	0.4214
530.00	0.4206
531.00	0.4189
532.00	0.4171
533.00	0.4154
534.00	0.4132
535.00	0.4111
536.00	0.4095
537.00	0.4077
538.00	0.4059
539.00	0.4041
540.00	0.4017
541.00	0.3994
542.00	0.3975
543.00	0.3954
544.00	0.3935
545.00	0.3914
546.00	0.3896
547.00	0.3878
548.00	0.3862
549.00	0.3842
550.00	0.3825
551.00	0.3806
552.00	0.3788
553.00	0.3768
554.00	0.3748
555.00	0.3729
556.00	0.3710
557.00	0.3691
558.00	0.3673
559.00	0.3656
560.00	0.3636
561.00	0.3618
562.00	0.3599
563.00	0.3581
564.00	0.3562
565.00	0.3544
566.00	0.3524
567.00	0.3502
568.00	0.3480
569.00	0.3458
570.00	0.3438
571.00	0.3417
572.00	0.3399
573.00	0.3380
574.00	0.3359
575.00	0.3336
576.00	0.3312
577.00	0.3287
578.00	0.3263
579.00	0.3241
580.00	0.3219
581.00	0.3200
582.00	0.3178
583.00	0.3156
584.00	0.3135
585.00	0.3112
586.00	0.3089
587.00	0.3067
588.00	0.3044
589.00	0.3020
590.00	0.2997
591.00	0.2976
592.00	0.2955
593.00	0.2933
594.00	0.2911
595.00	0.2888
596.00	0.2864
597.00	0.2838
598.00	0.2814
599.00	0.2792
600.00	0.2770
601.00	0.2751
602.00	0.2731
603.00	0.2713
604.00	0.2693
605.00	0.2672
606.00	0.2649
607.00	0.2628
608.00	0.2607
609.00	0.2590
610.00	0.2575
611.00	0.2559
612.00	0.2542
613.00	0.2523
614.00	0.2505
615.00	0.2488
616.00	0.2475
617.00	0.2464
618.00	0.2451
619.00	0.2437
620.00	0.2421
621.00	0.2408
622.00	0.2397
623.00	0.2390
624.00	0.2381
625.00	0.2373
626.00	0.2362
627.00	0.2351
628.00	0.2340
629.00	0.2335
630.00	0.2329
631.00	0.2322
632.00	0.2313
633.00	0.2305
634.00	0.2295
635.00	0.2289
636.00	0.2283
637.00	0.2283
638.00	0.2283
639.00	0.2281
640.00	0.2277
641.00	0.2274
642.00	0.2268
643.00	0.2262
644.00	0.2259
645.00	0.2258
646.00	0.2258
647.00	0.2258
648.00	0.2258
649.00	0.2259
650.00	0.2260
651.00	0.2262
652.00	0.2262
653.00	0.2263
654.00	0.2263
655.00	0.2264
656.00	0.2265
657.00	0.2269
658.00	0.2270
659.00	0.2273
660.00	0.2272
661.00	0.2272
662.00	0.2272
663.00	0.2273
664.00	0.2273
665.00	0.2275
666.00	0.2271
667.00	0.2273
668.00	0.2274
669.00	0.2278
670.00	0.2290
671.00	0.2303
672.00	0.2311
673.00	0.2321
674.00	0.2328
675.00	0.2326
676.00	0.2330
677.00	0.2332
678.00	0.2334
679.00	0.2336
680.00	0.2341
681.00	0.2346
682.00	0.2352
683.00	0.2359
684.00	0.2365
685.00	0.2369
686.00	0.2370
687.00	0.2375
688.00	0.2377
689.00	0.2379
690.00	0.2379
691.00	0.2386
692.00	0.2387
693.00	0.2388
694.00	0.2392
695.00	0.2398
696.00	0.2395
697.00	0.2395
698.00	0.2395
699.00	0.2395
700.00	0.2395
701.00	0.2400
702.00	0.2403
703.00	0.2408
704.00	0.2409
705.00	0.2412
706.00	0.2411
707.00	0.2412
708.00	0.2414
709.00	0.2417
710.00	0.2420
711.00	0.2421
712.00	0.2425
713.00	0.2426
714.00	0.2429
715.00	0.2431
716.00	0.2434
717.00	0.2433
718.00	0.2434
719.00	0.2435
720.00	0.2437
721.00	0.2438
722.00	0.2441
723.00	0.2444
724.00	0.2439
725.00	0.2443
726.00	0.2440
727.00	0.2443
728.00	0.2444
729.00	0.2452
730.00	0.2453
731.00	0.2465
732.00	0.2472
733.00	0.2480
734.00	0.2486
735.00	0.2492
736.00	0.2496
737.00	0.2500
738.00	0.2506
739.00	0.2514
740.00	0.2523
741.00	0.2535
742.00	0.2541
743.00	0.2548
744.00	0.2555
745.00	0.2564
746.00	0.2569
747.00	0.2575
748.00	0.2585
749.00	0.2590
750.00	0.2596
751.00	0.2602
752.00	0.2612
753.00	0.2614
754.00	0.2622
755.00	0.2628
756.00	0.2636
757.00	0.2645
758.00	0.2650
759.00	0.2656
760.00	0.2661
761.00	0.2663
762.00	0.2665
763.00	0.2673
764.00	0.2678
765.00	0.2683
766.00	0.2688
767.00	0.2692
768.00	0.2693
769.00	0.2691
770.00	0.2687
771.00	0.2684
772.00	0.2680
773.00	0.2676
774.00	0.2672
775.00	0.2665
776.00	0.2661
777.00	0.2654
778.00	0.2646
779.00	0.2638
780.00	0.2628
781.00	0.2616
782.00	0.2606
783.00	0.2596
784.00	0.2592
785.00	0.2589
786.00	0.2583
787.00	0.2575
788.00	0.2568
789.00	0.2558
790.00	0.2548
791.00	0.2537
792.00	0.2526
793.00	0.2515
794.00	0.2502
795.00	0.2488
796.00	0.2474
797.00	0.2457
798.00	0.2440
799.00	0.2425
800.00	0.2409
801.00	0.2396
802.00	0.2387
803.00	0.2377
804.00	0.2364
805.00	0.2354
806.00	0.2342
807.00	0.2329
808.00	0.2319
809.00	0.2314
810.00	0.2306
811.00	0.2301
812.00	0.2296
813.00	0.2290
814.00	0.2283
815.00	0.2280
816.00	0.2274
817.00	0.2270
818.00	0.2267
819.00	0.2267
820.00	0.2267
821.00	0.2267
822.00	0.2269
823.00	0.2270
824.00	0.2267
825.00	0.2269
826.00	0.2272
827.00	0.2275
828.00	0.2278
829.00	0.2282
830.00	0.2285
831.00	0.2293
832.00	0.2296
833.00	0.2303
834.00	0.2308
835.00	0.2313
836.00	0.2318
837.00	0.2326
838.00	0.2334
839.00	0.2343
840.00	0.2351
841.00	0.2361
842.00	0.2370
843.00	0.2378
844.00	0.2388
845.00	0.2398
846.00	0.2408
847.00	0.2420
848.00	0.2430
849.00	0.2439
850.00	0.2448
851.00	0.2456
852.00	0.2462
853.00	0.2468
854.00	0.2473
855.00	0.2476
856.00	0.2478
857.00	0.2480
858.00	0.2481
859.00	0.2483
860.00	0.2486
861.00	0.2488
862.00	0.2490
863.00	0.2492
864.00	0.2494
865.00	0.2494
866.00	0.2495
867.00	0.2496
868.00	0.2496
869.00	0.2496
870.00	0.2496
871.00	0.2495
872.00	0.2493
873.00	0.2491
874.00	0.2487
875.00	0.2484
876.00	0.2478
877.00	0.2471
878.00	0.2461
879.00	0.2451
880.00	0.2439
881.00	0.2428
882.00	0.2416
883.00	0.2404
884.00	0.2391
885.00	0.2378
886.00	0.2364
887.00	0.2347
888.00	0.2331
889.00	0.2316
890.00	0.2298
891.00	0.2281
892.00	0.2267
893.00	0.2251
894.00	0.2235
895.00	0.2218
896.00	0.2202
897.00	0.2185
898.00	0.2170
899.00	0.2156
900.00	0.2142
901.00	0.2126
902.00	0.2112
903.00	0.2097
904.00	0.2084
905.00	0.2071
906.00	0.2058
907.00	0.2046
908.00	0.2032
909.00	0.2017
910.00	0.2004
911.00	0.1989
912.00	0.1972
913.00	0.1963
914.00	0.1953
915.00	0.1942
916.00	0.1931
917.00	0.1922
918.00	0.1907
919.00	0.1892
920.00	0.1879
921.00	0.1868
922.00	0.1855
923.00	0.1842
924.00	0.1829
925.00	0.1817
926.00	0.1806
927.00	0.1796
928.00	0.1786
929.00	0.1776
930.00	0.1765
931.00	0.1753
932.00	0.1742
933.00	0.1731
934.00	0.1720
935.00	0.1711
936.00	0.1701
937.00	0.1692
938.00	0.1683
939.00	0.1673
940.00	0.1663
941.00	0.1654
942.00	0.1644
943.00	0.1633
944.00	0.1623
945.00	0.1614
946.00	0.1603
947.00	0.1593
948.00	0.1585
949.00	0.1576
950.00	0.1566
951.00	0.1558
952.00	0.1550
953.00	0.1539
954.00	0.1529
955.00	0.1522
956.00	0.1514
957.00	0.1504
958.00	0.1495
959.00	0.1486
960.00	0.1478
961.00	0.1468
962.00	0.1461
963.00	0.1454
964.00	0.1447
965.00	0.1436
966.00	0.1428
967.00	0.1419
968.00	0.1408
969.00	0.1401
970.00	0.1393
971.00	0.1386
972.00	0.1379
973.00	0.1371
974.00	0.1360
975.00	0.1351
976.00	0.1341
977.00	0.1332
978.00	0.1326
979.00	0.1319
980.00	0.1313
981.00	0.1305
982.00	0.1297
983.00	0.1289
984.00	0.1282
985.00	0.1275
986.00	0.1271
987.00	0.1261
988.00	0.1254
989.00	0.1245
990.00	0.1236
991.00	0.1226
992.00	0.1219
993.00	0.1210
994.00	0.1202
995.00	0.1195
996.00	0.1189
997.00	0.1182
998.00	0.1176
999.00	0.1169
1000.00	0.1159
1001.00	0.1151
1002.00	0.1143
1003.00	0.1133
1004.00	0.1126
1005.00	0.1120
1006.00	0.1113
1007.00	0.1107
1008.00	0.1101
1009.00	0.1094
1010.00	0.1089
1011.00	0.1080
1012.00	0.1074
1013.00	0.1067
1014.00	0.1061
1015.00	0.1053
1016.00	0.1045
1017.00	0.1038
1018.00	0.1030
1019.00	0.1024
1020.00	0.1019
1021.00	0.1014
1022.00	0.1009
1023.00	0.1004
1024.00	0.0997
1025.00	0.0988
1026.00	0.0982
1027.00	0.0974
1028.00	0.0969
1029.00	0.0962
1030.00	0.0958
1031.00	0.0952
1032.00	0.0948
1033.00	0.0942
1034.00	0.0939
1035.00	0.0933
1036.00	0.0926
1037.00	0.0920
1038.00	0.0913
1039.00	0.0905
1040.00	0.0899
1041.00	0.0896
1042.00	0.0890
1043.00	0.0887
1044.00	0.0882
1045.00	0.0879
1046.00	0.0873
1047.00	0.0866
1048.00	0.0859
1049.00	0.0854
1050.00	0.0845
1051.00	0.0840
1052.00	0.0836
1053.00	0.0832
1054.00	0.0827
1055.00	0.0825
1056.00	0.0821
1057.00	0.0820
1058.00	0.0819
1059.00	0.0813
1060.00	0.0807
1061.00	0.0803
1062.00	0.0797
1063.00	0.0789
1064.00	0.0785
1065.00	0.0782
1066.00	0.0776
1067.00	0.0772
1068.00	0.0771
1069.00	0.0766
1070.00	0.0762
1071.00	0.0757
1072.00	0.0749
1073.00	0.0742
1074.00	0.0740
1075.00	0.0736
1076.00	0.0735
1077.00	0.0733
1078.00	0.0731
1079.00	0.0726
1080.00	0.0721
1081.00	0.0718
1082.00	0.0713
1083.00	0.0709
1084.00	0.0705
1085.00	0.0703
1086.00	0.0699
1087.00	0.0698
1088.00	0.0693
1089.00	0.0692
1090.00	0.0689
1091.00	0.0686
1092.00	0.0684
1093.00	0.0680
1094.00	0.0676
1095.00	0.0672
1096.00	0.0670
1097.00	0.0667
1098.00	0.0668
1099.00	0.0667
1100.00	0.0668
1101.00	0.0664
1102.00	0.0660
1103.00	0.0655
1104.00	0.0650
1105.00	0.0647
1106.00	0.0643
1107.00	0.0641
1108.00	0.0640
1109.00	0.0638
1110.00	0.0636
1111.00	0.0635
1112.00	0.0632
1113.00	0.0629
1114.00	0.0629
1115.00	0.0625
1116.00	0.0622
1117.00	0.0620
1118.00	0.0618
1119.00	0.0615
1120.00	0.0616
1121.00	0.0615
1122.00	0.0615
1123.00	0.0613
1124.00	0.0611
1125.00	0.0610
1126.00	0.0607
1127.00	0.0605
1128.00	0.0602
1129.00	0.0601
1130.00	0.0598
1131.00	0.0598
1132.00	0.0596
1133.00	0.0596
1134.00	0.0595
1135.00	0.0594
1136.00	0.0593
1137.00	0.0590
1138.00	0.0583
1139.00	0.0582
1140.00	0.0582
1141.00	0.0578
1142.00	0.0576
1143.00	0.0581
1144.00	0.0580
1145.00	0.0576
1146.00	0.0578
1147.00	0.0580
1148.00	0.0580
1149.00	0.0580
1150.00	0.0580
1151.00	0.0579
1152.00	0.0577
1153.00	0.0574
1154.00	0.0573
1155.00	0.0572
1156.00	0.0567
1157.00	0.0569
1158.00	0.0570
1159.00	0.0569
1160.00	0.0570
1161.00	0.0573
1162.00	0.0569
1163.00	0.0568
1164.00	0.0567
1165.00	0.0565
1166.00	0.0565
1167.00	0.0565
1168.00	0.0565
1169.00	0.0566
1170.00	0.0569
1171.00	0.0567
1172.00	0.0564
1173.00	0.0564
1174.00	0.0561
1175.00	0.0559
1176.00	0.0560
1177.00	0.0562
1178.00	0.0560
1179.00	0.0561
1180.00	0.0562
1181.00	0.0562
1182.00	0.0562
1183.00	0.0563
1184.00	0.0565
1185.00	0.0563
1186.00	0.0563
1187.00	0.0565
1188.00	0.0564
1189.00	0.0564
1190.00	0.0563
1191.00	0.0562
1192.00	0.0561
1193.00	0.0560
1194.00	0.0563
1195.00	0.0566
1196.00	0.0565
1197.00	0.0565
1198.00	0.0563
1199.00	0.0560
1200.00	0.0558
1201.00	0.0559
1202.00	0.0556
1203.00	0.0560
1204.00	0.0563
1205.00	0.0564
1206.00	0.0564
1207.00	0.0566
1208.00	0.0567
1209.00	0.0563
1210.00	0.0564
1211.00	0.0564
1212.00	0.0565
1213.00	0.0565
1214.00	0.0566
1215.00	0.0565
1216.00	0.0566
1217.00	0.0567
1218.00	0.0567
1219.00	0.0568
1220.00	0.0568
1221.00	0.0568
1222.00	0.0570
1223.00	0.0571
1224.00	0.0572
1225.00	0.0574
1226.00	0.0575
1227.00	0.0574
1228.00	0.0576
1229.00	0.0577
1230.00	0.0576
1231.00	0.0578
1232.00	0.0581
1233.00	0.0571
1234.00	0.0569
1235.00	0.0572
1236.00	0.0570
1237.00	0.0569
1238.00	0.0579
1239.00	0.0581
1240.00	0.0581
1241.00	0.0582
1242.00	0.0581
1243.00	0.0583
1244.00	0.0584
1245.00	0.0585
1246.00	0.0587
1247.00	0.0588
1248.00	0.0589
1249.00	0.0589
1250.00	0.0589
1251.00	0.0589
1252.00	0.0591
1253.00	0.0590
1254.00	0.0591
1255.00	0.0592
1256.00	0.0590
1257.00	0.0592
1258.00	0.0594
1259.00	0.0595
1260.00	0.0599
1261.00	0.0602
1262.00	0.0604
1263.00	0.0605
1264.00	0.0602
1265.00	0.0604
1266.00	0.0605
1267.00	0.0604
1268.00	0.0605
1269.00	0.0608
1270.00	0.0608
1271.00	0.0609
1272.00	0.0613
1273.00	0.0611
1274.00	0.0617
1275.00	0.0618
1276.00	0.0619
1277.00	0.0621
1278.00	0.0624
1279.00	0.0622
1280.00	0.0622
1281.00	0.0624
1282.00	0.0624
1283.00	0.0626
1284.00	0.0628
1285.00	0.0628
1286.00	0.0628
1287.00	0.0629
1288.00	0.0627
1289.00	0.0629
1290.00	0.0632
1291.00	0.0633
1292.00	0.0636
1293.00	0.0638
1294.00	0.0638
1295.00	0.0639
1296.00	0.0640
1297.00	0.0642
1298.00	0.0647
1299.00	0.0649
1300.00	0.0650
1301.00	0.0652
1302.00	0.0652
1303.00	0.0652
1304.00	0.0654
1305.00	0.0656
1306.00	0.0656
1307.00	0.0657
1308.00	0.0657
1309.00	0.0661
1310.00	0.0661
1311.00	0.0663
1312.00	0.0666
1313.00	0.0666
1314.00	0.0665
1315.00	0.0669
1316.00	0.0671
1317.00	0.0671
1318.00	0.0674
1319.00	0.0675
1320.00	0.0674
1321.00	0.0675
1322.00	0.0678
1323.00	0.0682
1324.00	0.0683
1325.00	0.0685
1326.00	0.0687
1327.00	0.0689
1328.00	0.0689
1329.00	0.0690
1330.00	0.0693
1331.00	0.0694
1332.00	0.0695
1333.00	0.0697
1334.00	0.0701
1335.00	0.0701
1336.00	0.0705
1337.00	0.0708
1338.00	0.0706
1339.00	0.0707
1340.00	0.0710
1341.00	0.0713
1342.00	0.0714
1343.00	0.0720
1344.00	0.0723
1345.00	0.0727
1346.00	0.0726
1347.00	0.0730
1348.00	0.0732
1349.00	0.0734
1350.00	0.0733
1351.00	0.0736
1352.00	0.0737
1353.00	0.0740
1354.00	0.0744
1355.00	0.0744
1356.00	0.0749
1357.00	0.0752
1358.00	0.0756
1359.00	0.0757
1360.00	0.0761
1361.00	0.0763
1362.00	0.0764
1363.00	0.0767
1364.00	0.0769
1365.00	0.0774
1366.00	0.0776
1367.00	0.0778
1368.00	0.0780
1369.00	0.0784
1370.00	0.0783
1371.00	0.0788
1372.00	0.0791
1373.00	0.0792
1374.00	0.0797
1375.00	0.0800
1376.00	0.0802
1377.00	0.0805
1378.00	0.0809
1379.00	0.0808
1380.00	0.0812
1381.00	0.0814
1382.00	0.0813
1383.00	0.0819
1384.00	0.0824
1385.00	0.0826
1386.00	0.0831
1387.00	0.0837
1388.00	0.0837
1389.00	0.0841
1390.00	0.0844
1391.00	0.0845
1392.00	0.0849
1393.00	0.0852
1394.00	0.0852
1395.00	0.0854
1396.00	0.0860
1397.00	0.0861
1398.00	0.0865
1399.00	0.0868
1400.00	0.0872
1401.00	0.0874
1402.00	0.0875
1403.00	0.0878
1404.00	0.0882
1405.00	0.0885
1406.00	0.0888
1407.00	0.0892
1408.00	0.0896
1409.00	0.0900
1410.00	0.0902
1411.00	0.0907
1412.00	0.0907
1413.00	0.0908
1414.00	0.0911
1415.00	0.0915
1416.00	0.0912
1417.00	0.0917
1418.00	0.0920
1419.00	0.0924
1420.00	0.0927
1421.00	0.0935
1422.00	0.0941
1423.00	0.0945
1424.00	0.0946
1425.00	0.0948
1426.00	0.0954
1427.00	0.0956
1428.00	0.0957
1429.00	0.0959
1430.00	0.0966
1431.00	0.0965
1432.00	0.0959
1433.00	0.0963
1434.00	0.0969
1435.00	0.0969
1436.00	0.0975
1437.00	0.0988
1438.00	0.0991
1439.00	0.0994
1440.00	0.0996
1441.00	0.0997
1442.00	0.1001
1443.00	0.1003
1444.00	0.1006
1445.00	0.1011
1446.00	0.1013
1447.00	0.1009
1448.00	0.1014
1449.00	0.1018
1450.00	0.1021
1451.00	0.1029
1452.00	0.1036
1453.00	0.1038
1454.00	0.1041
1455.00	0.1043
1456.00	0.1045
1457.00	0.1051
1458.00	0.1055
1459.00	0.1057
1460.00	0.1060
1461.00	0.1064
1462.00	0.1067
1463.00	0.1069
1464.00	0.1074
1465.00	0.1077
1466.00	0.1081
1467.00	0.1082
1468.00	0.1086
1469.00	0.1090
1470.00	0.1096
1471.00	0.1103
1472.00	0.1107
1473.00	0.1112
1474.00	0.1116
1475.00	0.1117
1476.00	0.1118
1477.00	0.1118
1478.00	0.1111
1479.00	0.1115
1480.00	0.1120
1481.00	0.1122
1482.00	0.1128
1483.00	0.1143
1484.00	0.1148
1485.00	0.1151
1486.00	0.1154
1487.00	0.1155
1488.00	0.1158
1489.00	0.1159
1490.00	0.1160
1491.00	0.1166
1492.00	0.1170
1493.00	0.1172
1494.00	0.1178
1495.00	0.1182
1496.00	0.1187
1497.00	0.1193
1498.00	0.1195
1499.00	0.1200
1500.00	0.1204
1501.00	0.1206
1502.00	0.1210
1503.00	0.1214
1504.00	0.1217
1505.00	0.1221
1506.00	0.1226
1507.00	0.1232
1508.00	0.1234
1509.00	0.1239
1510.00	0.1242
1511.00	0.1247
1512.00	0.1248
1513.00	0.1252
1514.00	0.1258
1515.00	0.1263
1516.00	0.1264
1517.00	0.1271
1518.00	0.1276
1519.00	0.1280
1520.00	0.1283
1521.00	0.1288
1522.00	0.1291
1523.00	0.1296
1524.00	0.1297
1525.00	0.1302
1526.00	0.1306
1527.00	0.1308
1528.00	0.1311
1529.00	0.1314
1530.00	0.1319
1531.00	0.1324
1532.00	0.1329
1533.00	0.1332
1534.00	0.1337
1535.00	0.1339
1536.00	0.1343
1537.00	0.1346
1538.00	0.1348
1539.00	0.1352
1540.00	0.1357
1541.00	0.1360
1542.00	0.1366
1543.00	0.1373
1544.00	0.1377
1545.00	0.1380
1546.00	0.1383
1547.00	0.1387
1548.00	0.1388
1549.00	0.1391
1550.00	0.1395
1551.00	0.1399
1552.00	0.1403
1553.00	0.1406
1554.00	0.1411
1555.00	0.1414
1556.00	0.1417
1557.00	0.1420
1558.00	0.1426
1559.00	0.1430
1560.00	0.1435
1561.00	0.1439
1562.00	0.1441
1563.00	0.1447
1564.00	0.1448
1565.00	0.1454
1566.00	0.1460
1567.00	0.1464
1568.00	0.1467
1569.00	0.1472
1570.00	0.1471
1571.00	0.1475
1572.00	0.1480
1573.00	0.1482
1574.00	0.1491
1575.00	0.1496
1576.00	0.1500
1577.00	0.1506
1578.00	0.1513
1579.00	0.1513
1580.00	0.1518
1581.00	0.1523
1582.00	0.1524
1583.00	0.1528
1584.00	0.1532
1585.00	0.1535
1586.00	0.1539
1587.00	0.1545
1588.00	0.1548
1589.00	0.1554
