"20-30mM-1_Toluene0mM - RawData"
"Wavelength nm."	"Abs."
300.00	0.1095
301.00	0.1095
302.00	0.1089
303.00	0.1081
304.00	0.1070
305.00	0.1059
306.00	0.1047
307.00	0.1041
308.00	0.1038
309.00	0.1035
310.00	0.1028
311.00	0.1021
312.00	0.1018
313.00	0.1014
314.00	0.1010
315.00	0.1013
316.00	0.1019
317.00	0.1023
318.00	0.1024
319.00	0.1026
320.00	0.1027
321.00	0.1029
322.00	0.1029
323.00	0.1035
324.00	0.1041
325.00	0.1045
326.00	0.1049
327.00	0.1053
328.00	0.1056
329.00	0.1061
330.00	0.1066
331.00	0.1067
332.00	0.1066
333.00	0.1071
334.00	0.1076
335.00	0.1084
336.00	0.1099
337.00	0.1117
338.00	0.1127
339.00	0.1138
340.00	0.1151
341.00	0.1161
342.00	0.1172
343.00	0.1184
344.00	0.1198
345.00	0.1208
346.00	0.1222
347.00	0.1235
348.00	0.1247
349.00	0.1259
350.00	0.1273
351.00	0.1284
352.00	0.1297
353.00	0.1311
354.00	0.1323
355.00	0.1336
356.00	0.1350
357.00	0.1362
358.00	0.1373
359.00	0.1385
360.00	0.1395
361.00	0.1402
362.00	0.1408
363.00	0.1423
364.00	0.1440
365.00	0.1458
366.00	0.1478
367.00	0.1505
368.00	0.1519
369.00	0.1535
370.00	0.1553
371.00	0.1573
372.00	0.1596
373.00	0.1612
374.00	0.1627
375.00	0.1640
376.00	0.1651
377.00	0.1660
378.00	0.1678
379.00	0.1695
380.00	0.1713
381.00	0.1730
382.00	0.1744
383.00	0.1761
384.00	0.1781
385.00	0.1802
386.00	0.1825
387.00	0.1850
388.00	0.1873
389.00	0.1894
390.00	0.1915
391.00	0.1937
392.00	0.1960
393.00	0.1983
394.00	0.2007
395.00	0.2032
396.00	0.2057
397.00	0.2081
398.00	0.2106
399.00	0.2130
400.00	0.2155
401.00	0.2180
402.00	0.2208
403.00	0.2236
404.00	0.2264
405.00	0.2292
406.00	0.2321
407.00	0.2349
408.00	0.2375
409.00	0.2403
410.00	0.2431
411.00	0.2460
412.00	0.2488
413.00	0.2519
414.00	0.2552
415.00	0.2584
416.00	0.2619
417.00	0.2655
418.00	0.2691
419.00	0.2726
420.00	0.2762
421.00	0.2796
422.00	0.2832
423.00	0.2871
424.00	0.2906
425.00	0.2942
426.00	0.2984
427.00	0.3027
428.00	0.3067
429.00	0.3108
430.00	0.3149
431.00	0.3187
432.00	0.3222
433.00	0.3261
434.00	0.3304
435.00	0.3350
436.00	0.3395
437.00	0.3440
438.00	0.3485
439.00	0.3531
440.00	0.3577
441.00	0.3625
442.00	0.3675
443.00	0.3726
444.00	0.3778
445.00	0.3831
446.00	0.3885
447.00	0.3938
448.00	0.3989
449.00	0.4039
450.00	0.4092
451.00	0.4145
452.00	0.4199
453.00	0.4254
454.00	0.4313
455.00	0.4369
456.00	0.4425
457.00	0.4480
458.00	0.4538
459.00	0.4594
460.00	0.4651
461.00	0.4709
462.00	0.4769
463.00	0.4825
464.00	0.4882
465.00	0.4937
466.00	0.4991
467.00	0.5044
468.00	0.5098
469.00	0.5148
470.00	0.5200
471.00	0.5249
472.00	0.5299
473.00	0.5348
474.00	0.5399
475.00	0.5450
476.00	0.5502
477.00	0.5557
478.00	0.5610
479.00	0.5662
480.00	0.5714
481.00	0.5766
482.00	0.5814
483.00	0.5859
484.00	0.5904
485.00	0.5949
486.00	0.5990
487.00	0.6031
488.00	0.6071
489.00	0.6110
490.00	0.6148
491.00	0.6184
492.00	0.6222
493.00	0.6259
494.00	0.6295
495.00	0.6328
496.00	0.6363
497.00	0.6396
498.00	0.6428
499.00	0.6460
500.00	0.6491
501.00	0.6522
502.00	0.6551
503.00	0.6579
504.00	0.6606
505.00	0.6632
506.00	0.6654
507.00	0.6677
508.00	0.6696
509.00	0.6714
510.00	0.6729
511.00	0.6744
512.00	0.6756
513.00	0.6765
514.00	0.6771
515.00	0.6776
516.00	0.6778
517.00	0.6774
518.00	0.6771
519.00	0.6769
520.00	0.6762
521.00	0.6752
522.00	0.6744
523.00	0.6734
524.00	0.6716
525.00	0.6696
526.00	0.6678
527.00	0.6657
528.00	0.6638
529.00	0.6621
530.00	0.6606
531.00	0.6595
532.00	0.6576
533.00	0.6555
534.00	0.6531
535.00	0.6511
536.00	0.6484
537.00	0.6465
538.00	0.6447
539.00	0.6430
540.00	0.6410
541.00	0.6389
542.00	0.6370
543.00	0.6350
544.00	0.6330
545.00	0.6306
546.00	0.6283
547.00	0.6258
548.00	0.6231
549.00	0.6200
550.00	0.6170
551.00	0.6135
552.00	0.6098
553.00	0.6058
554.00	0.6016
555.00	0.5969
556.00	0.5922
557.00	0.5868
558.00	0.5810
559.00	0.5752
560.00	0.5690
561.00	0.5624
562.00	0.5561
563.00	0.5498
564.00	0.5428
565.00	0.5357
566.00	0.5285
567.00	0.5208
568.00	0.5129
569.00	0.5053
570.00	0.4981
571.00	0.4908
572.00	0.4836
573.00	0.4765
574.00	0.4695
575.00	0.4625
576.00	0.4555
577.00	0.4489
578.00	0.4427
579.00	0.4369
580.00	0.4310
581.00	0.4257
582.00	0.4205
583.00	0.4155
584.00	0.4107
585.00	0.4063
586.00	0.4021
587.00	0.3982
588.00	0.3946
589.00	0.3911
590.00	0.3877
591.00	0.3845
592.00	0.3813
593.00	0.3782
594.00	0.3751
595.00	0.3719
596.00	0.3686
597.00	0.3652
598.00	0.3620
599.00	0.3585
600.00	0.3548
601.00	0.3510
602.00	0.3472
603.00	0.3428
604.00	0.3378
605.00	0.3328
606.00	0.3275
607.00	0.3217
608.00	0.3157
609.00	0.3097
610.00	0.3033
611.00	0.2967
612.00	0.2901
613.00	0.2831
614.00	0.2758
615.00	0.2687
616.00	0.2619
617.00	0.2549
618.00	0.2479
619.00	0.2408
620.00	0.2337
621.00	0.2264
622.00	0.2191
623.00	0.2128
624.00	0.2064
625.00	0.2001
626.00	0.1939
627.00	0.1880
628.00	0.1818
629.00	0.1763
630.00	0.1710
631.00	0.1661
632.00	0.1607
633.00	0.1556
634.00	0.1510
635.00	0.1469
636.00	0.1430
637.00	0.1394
638.00	0.1363
639.00	0.1330
640.00	0.1297
641.00	0.1264
642.00	0.1236
643.00	0.1211
644.00	0.1187
645.00	0.1164
646.00	0.1144
647.00	0.1126
648.00	0.1108
649.00	0.1094
650.00	0.1081
651.00	0.1068
652.00	0.1052
653.00	0.1039
654.00	0.1024
655.00	0.1009
656.00	0.0995
657.00	0.0985
658.00	0.0975
659.00	0.0968
660.00	0.0961
661.00	0.0956
662.00	0.0948
663.00	0.0941
664.00	0.0930
665.00	0.0922
666.00	0.0920
667.00	0.0914
668.00	0.0908
669.00	0.0903
670.00	0.0904
671.00	0.0897
672.00	0.0895
673.00	0.0893
674.00	0.0891
675.00	0.0882
676.00	0.0879
677.00	0.0873
678.00	0.0865
679.00	0.0860
680.00	0.0858
681.00	0.0853
682.00	0.0850
683.00	0.0852
684.00	0.0851
685.00	0.0850
686.00	0.0847
687.00	0.0844
688.00	0.0839
689.00	0.0836
690.00	0.0829
691.00	0.0831
692.00	0.0829
693.00	0.0827
694.00	0.0824
695.00	0.0827
696.00	0.0821
697.00	0.0819
698.00	0.0816
699.00	0.0814
700.00	0.0810
701.00	0.0807
702.00	0.0804
703.00	0.0809
704.00	0.0813
705.00	0.0809
706.00	0.0809
707.00	0.0811
708.00	0.0809
709.00	0.0801
710.00	0.0802
711.00	0.0804
712.00	0.0803
713.00	0.0796
714.00	0.0796
715.00	0.0795
716.00	0.0792
717.00	0.0787
718.00	0.0783
719.00	0.0782
720.00	0.0780
721.00	0.0778
722.00	0.0781
723.00	0.0785
724.00	0.0774
725.00	0.0772
726.00	0.0762
727.00	0.0758
728.00	0.0750
729.00	0.0756
730.00	0.0753
731.00	0.0763
732.00	0.0758
733.00	0.0758
734.00	0.0756
735.00	0.0753
736.00	0.0746
737.00	0.0746
738.00	0.0746
739.00	0.0747
740.00	0.0747
741.00	0.0746
742.00	0.0745
743.00	0.0742
744.00	0.0736
745.00	0.0735
746.00	0.0734
747.00	0.0731
748.00	0.0734
749.00	0.0735
750.00	0.0737
751.00	0.0734
752.00	0.0737
753.00	0.0731
754.00	0.0731
755.00	0.0730
756.00	0.0731
757.00	0.0726
758.00	0.0726
759.00	0.0726
760.00	0.0723
761.00	0.0719
762.00	0.0720
763.00	0.0721
764.00	0.0720
765.00	0.0720
766.00	0.0720
767.00	0.0722
768.00	0.0721
769.00	0.0721
770.00	0.0715
771.00	0.0712
772.00	0.0711
773.00	0.0712
774.00	0.0709
775.00	0.0711
776.00	0.0712
777.00	0.0715
778.00	0.0711
779.00	0.0710
780.00	0.0704
781.00	0.0704
782.00	0.0694
783.00	0.0691
784.00	0.0687
785.00	0.0693
786.00	0.0692
787.00	0.0690
788.00	0.0685
789.00	0.0684
790.00	0.0679
791.00	0.0672
792.00	0.0665
793.00	0.0659
794.00	0.0654
795.00	0.0645
796.00	0.0635
797.00	0.0624
798.00	0.0615
799.00	0.0604
800.00	0.0594
801.00	0.0587
802.00	0.0582
803.00	0.0574
804.00	0.0564
805.00	0.0553
806.00	0.0544
807.00	0.0535
808.00	0.0528
809.00	0.0522
810.00	0.0516
811.00	0.0511
812.00	0.0506
813.00	0.0500
814.00	0.0496
815.00	0.0496
816.00	0.0495
817.00	0.0496
818.00	0.0499
819.00	0.0501
820.00	0.0499
821.00	0.0497
822.00	0.0495
823.00	0.0491
824.00	0.0486
825.00	0.0486
826.00	0.0483
827.00	0.0482
828.00	0.0482
829.00	0.0483
830.00	0.0483
831.00	0.0484
832.00	0.0484
833.00	0.0485
834.00	0.0483
835.00	0.0482
836.00	0.0483
837.00	0.0482
838.00	0.0482
839.00	0.0481
840.00	0.0480
841.00	0.0480
842.00	0.0479
843.00	0.0477
844.00	0.0478
845.00	0.0476
846.00	0.0478
847.00	0.0476
848.00	0.0474
849.00	0.0472
850.00	0.0472
851.00	0.0470
852.00	0.0470
853.00	0.0471
854.00	0.0471
855.00	0.0470
856.00	0.0468
857.00	0.0467
858.00	0.0464
859.00	0.0462
860.00	0.0462
861.00	0.0462
862.00	0.0462
863.00	0.0462
864.00	0.0462
865.00	0.0460
866.00	0.0458
867.00	0.0456
868.00	0.0456
869.00	0.0454
870.00	0.0453
871.00	0.0452
872.00	0.0451
873.00	0.0450
874.00	0.0452
875.00	0.0453
876.00	0.0454
877.00	0.0454
878.00	0.0454
879.00	0.0453
880.00	0.0453
881.00	0.0453
882.00	0.0451
883.00	0.0447
884.00	0.0446
885.00	0.0443
886.00	0.0440
887.00	0.0441
888.00	0.0441
889.00	0.0440
890.00	0.0437
891.00	0.0438
892.00	0.0436
893.00	0.0435
894.00	0.0434
895.00	0.0434
896.00	0.0432
897.00	0.0431
898.00	0.0430
899.00	0.0431
900.00	0.0428
901.00	0.0426
902.00	0.0424
903.00	0.0425
904.00	0.0425
905.00	0.0426
906.00	0.0428
907.00	0.0429
908.00	0.0427
909.00	0.0425
910.00	0.0424
911.00	0.0422
912.00	0.0419
913.00	0.0419
914.00	0.0417
915.00	0.0418
916.00	0.0418
917.00	0.0419
918.00	0.0420
919.00	0.0422
920.00	0.0421
921.00	0.0421
922.00	0.0418
923.00	0.0415
924.00	0.0412
925.00	0.0412
926.00	0.0407
927.00	0.0407
928.00	0.0408
929.00	0.0410
930.00	0.0407
931.00	0.0410
932.00	0.0408
933.00	0.0407
934.00	0.0405
935.00	0.0406
936.00	0.0406
937.00	0.0407
938.00	0.0407
939.00	0.0404
940.00	0.0403
941.00	0.0403
942.00	0.0402
943.00	0.0401
944.00	0.0403
945.00	0.0402
946.00	0.0401
947.00	0.0401
948.00	0.0402
949.00	0.0401
950.00	0.0400
951.00	0.0400
952.00	0.0399
953.00	0.0397
954.00	0.0397
955.00	0.0396
956.00	0.0396
957.00	0.0396
958.00	0.0394
959.00	0.0393
960.00	0.0393
961.00	0.0393
962.00	0.0392
963.00	0.0393
964.00	0.0395
965.00	0.0393
966.00	0.0392
967.00	0.0391
968.00	0.0389
969.00	0.0388
970.00	0.0390
971.00	0.0390
972.00	0.0388
973.00	0.0389
974.00	0.0387
975.00	0.0385
976.00	0.0384
977.00	0.0385
978.00	0.0384
979.00	0.0386
980.00	0.0386
981.00	0.0385
982.00	0.0385
983.00	0.0385
984.00	0.0383
985.00	0.0382
986.00	0.0384
987.00	0.0383
988.00	0.0383
989.00	0.0382
990.00	0.0383
991.00	0.0382
992.00	0.0382
993.00	0.0380
994.00	0.0381
995.00	0.0382
996.00	0.0382
997.00	0.0381
998.00	0.0381
999.00	0.0380
1000.00	0.0375
1001.00	0.0373
1002.00	0.0374
1003.00	0.0370
1004.00	0.0372
1005.00	0.0374
1006.00	0.0373
1007.00	0.0372
1008.00	0.0375
1009.00	0.0372
1010.00	0.0373
1011.00	0.0372
1012.00	0.0367
1013.00	0.0360
1014.00	0.0351
1015.00	0.0348
1016.00	0.0347
1017.00	0.0350
1018.00	0.0357
1019.00	0.0364
1020.00	0.0366
1021.00	0.0367
1022.00	0.0366
1023.00	0.0365
1024.00	0.0365
1025.00	0.0359
1026.00	0.0360
1027.00	0.0358
1028.00	0.0358
1029.00	0.0357
1030.00	0.0360
1031.00	0.0360
1032.00	0.0359
1033.00	0.0357
1034.00	0.0359
1035.00	0.0358
1036.00	0.0354
1037.00	0.0351
1038.00	0.0350
1039.00	0.0349
1040.00	0.0349
1041.00	0.0352
1042.00	0.0354
1043.00	0.0354
1044.00	0.0353
1045.00	0.0352
1046.00	0.0348
1047.00	0.0346
1048.00	0.0344
1049.00	0.0343
1050.00	0.0343
1051.00	0.0344
1052.00	0.0345
1053.00	0.0346
1054.00	0.0345
1055.00	0.0345
1056.00	0.0341
1057.00	0.0340
1058.00	0.0345
1059.00	0.0346
1060.00	0.0346
1061.00	0.0347
1062.00	0.0345
1063.00	0.0339
1064.00	0.0337
1065.00	0.0338
1066.00	0.0337
1067.00	0.0341
1068.00	0.0341
1069.00	0.0339
1070.00	0.0338
1071.00	0.0337
1072.00	0.0333
1073.00	0.0330
1074.00	0.0332
1075.00	0.0330
1076.00	0.0332
1077.00	0.0333
1078.00	0.0334
1079.00	0.0332
1080.00	0.0331
1081.00	0.0331
1082.00	0.0329
1083.00	0.0328
1084.00	0.0328
1085.00	0.0328
1086.00	0.0326
1087.00	0.0329
1088.00	0.0328
1089.00	0.0329
1090.00	0.0329
1091.00	0.0329
1092.00	0.0329
1093.00	0.0328
1094.00	0.0326
1095.00	0.0325
1096.00	0.0325
1097.00	0.0324
1098.00	0.0325
1099.00	0.0328
1100.00	0.0330
1101.00	0.0328
1102.00	0.0327
1103.00	0.0326
1104.00	0.0322
1105.00	0.0321
1106.00	0.0320
1107.00	0.0321
1108.00	0.0321
1109.00	0.0321
1110.00	0.0319
1111.00	0.0319
1112.00	0.0318
1113.00	0.0318
1114.00	0.0318
1115.00	0.0317
1116.00	0.0315
1117.00	0.0313
1118.00	0.0313
1119.00	0.0311
1120.00	0.0311
1121.00	0.0312
1122.00	0.0313
1123.00	0.0311
1124.00	0.0311
1125.00	0.0311
1126.00	0.0309
1127.00	0.0307
1128.00	0.0307
1129.00	0.0306
1130.00	0.0307
1131.00	0.0308
1132.00	0.0308
1133.00	0.0309
1134.00	0.0308
1135.00	0.0309
1136.00	0.0307
1137.00	0.0307
1138.00	0.0306
1139.00	0.0305
1140.00	0.0303
1141.00	0.0303
1142.00	0.0302
1143.00	0.0303
1144.00	0.0305
1145.00	0.0304
1146.00	0.0303
1147.00	0.0305
1148.00	0.0304
1149.00	0.0303
1150.00	0.0304
1151.00	0.0305
1152.00	0.0305
1153.00	0.0304
1154.00	0.0304
1155.00	0.0305
1156.00	0.0305
1157.00	0.0306
1158.00	0.0305
1159.00	0.0305
1160.00	0.0304
1161.00	0.0304
1162.00	0.0301
1163.00	0.0301
1164.00	0.0301
1165.00	0.0300
1166.00	0.0300
1167.00	0.0300
1168.00	0.0299
1169.00	0.0300
1170.00	0.0301
1171.00	0.0301
1172.00	0.0299
1173.00	0.0301
1174.00	0.0299
1175.00	0.0299
1176.00	0.0297
1177.00	0.0297
1178.00	0.0295
1179.00	0.0296
1180.00	0.0294
1181.00	0.0296
1182.00	0.0295
1183.00	0.0294
1184.00	0.0294
1185.00	0.0294
1186.00	0.0293
1187.00	0.0295
1188.00	0.0294
1189.00	0.0294
1190.00	0.0294
1191.00	0.0293
1192.00	0.0292
1193.00	0.0292
1194.00	0.0294
1195.00	0.0296
1196.00	0.0297
1197.00	0.0296
1198.00	0.0296
1199.00	0.0291
1200.00	0.0286
1201.00	0.0285
1202.00	0.0285
1203.00	0.0288
1204.00	0.0293
1205.00	0.0294
1206.00	0.0294
1207.00	0.0293
1208.00	0.0292
1209.00	0.0289
1210.00	0.0289
1211.00	0.0288
1212.00	0.0288
1213.00	0.0287
1214.00	0.0286
1215.00	0.0286
1216.00	0.0286
1217.00	0.0287
1218.00	0.0286
1219.00	0.0284
1220.00	0.0285
1221.00	0.0284
1222.00	0.0283
1223.00	0.0283
1224.00	0.0284
1225.00	0.0282
1226.00	0.0282
1227.00	0.0281
1228.00	0.0282
1229.00	0.0283
1230.00	0.0282
1231.00	0.0279
1232.00	0.0280
1233.00	0.0278
1234.00	0.0276
1235.00	0.0277
1236.00	0.0279
1237.00	0.0277
1238.00	0.0278
1239.00	0.0278
1240.00	0.0278
1241.00	0.0277
1242.00	0.0275
1243.00	0.0276
1244.00	0.0274
1245.00	0.0275
1246.00	0.0275
1247.00	0.0275
1248.00	0.0276
1249.00	0.0276
1250.00	0.0275
1251.00	0.0276
1252.00	0.0276
1253.00	0.0274
1254.00	0.0274
1255.00	0.0273
1256.00	0.0270
1257.00	0.0271
1258.00	0.0270
1259.00	0.0270
1260.00	0.0270
1261.00	0.0268
1262.00	0.0269
1263.00	0.0270
1264.00	0.0270
1265.00	0.0269
1266.00	0.0271
1267.00	0.0270
1268.00	0.0269
1269.00	0.0268
1270.00	0.0269
1271.00	0.0268
1272.00	0.0266
1273.00	0.0266
1274.00	0.0267
1275.00	0.0266
1276.00	0.0265
1277.00	0.0261
1278.00	0.0261
1279.00	0.0260
1280.00	0.0258
1281.00	0.0259
1282.00	0.0263
1283.00	0.0263
1284.00	0.0263
1285.00	0.0261
1286.00	0.0260
1287.00	0.0260
1288.00	0.0257
1289.00	0.0256
1290.00	0.0258
1291.00	0.0256
1292.00	0.0255
1293.00	0.0257
1294.00	0.0256
1295.00	0.0255
1296.00	0.0256
1297.00	0.0256
1298.00	0.0256
1299.00	0.0255
1300.00	0.0256
1301.00	0.0255
1302.00	0.0254
1303.00	0.0253
1304.00	0.0253
1305.00	0.0253
1306.00	0.0254
1307.00	0.0253
1308.00	0.0252
1309.00	0.0253
1310.00	0.0253
1311.00	0.0250
1312.00	0.0250
1313.00	0.0249
1314.00	0.0246
1315.00	0.0245
1316.00	0.0246
1317.00	0.0246
1318.00	0.0247
1319.00	0.0248
1320.00	0.0244
1321.00	0.0239
1322.00	0.0238
1323.00	0.0237
1324.00	0.0237
1325.00	0.0239
1326.00	0.0241
1327.00	0.0242
1328.00	0.0243
1329.00	0.0241
1330.00	0.0240
1331.00	0.0241
1332.00	0.0238
1333.00	0.0236
1334.00	0.0237
1335.00	0.0236
1336.00	0.0236
1337.00	0.0237
1338.00	0.0237
1339.00	0.0236
1340.00	0.0238
1341.00	0.0238
1342.00	0.0238
1343.00	0.0238
1344.00	0.0237
1345.00	0.0236
1346.00	0.0235
1347.00	0.0234
1348.00	0.0232
1349.00	0.0233
1350.00	0.0229
1351.00	0.0227
1352.00	0.0230
1353.00	0.0232
1354.00	0.0234
1355.00	0.0235
1356.00	0.0235
1357.00	0.0235
1358.00	0.0235
1359.00	0.0234
1360.00	0.0238
1361.00	0.0239
1362.00	0.0240
1363.00	0.0240
1364.00	0.0240
1365.00	0.0242
1366.00	0.0242
1367.00	0.0239
1368.00	0.0234
1369.00	0.0235
1370.00	0.0231
1371.00	0.0234
1372.00	0.0239
1373.00	0.0243
1374.00	0.0246
1375.00	0.0248
1376.00	0.0248
1377.00	0.0248
1378.00	0.0250
1379.00	0.0248
1380.00	0.0247
1381.00	0.0245
1382.00	0.0244
1383.00	0.0246
1384.00	0.0248
1385.00	0.0249
1386.00	0.0249
1387.00	0.0249
1388.00	0.0247
1389.00	0.0246
1390.00	0.0243
1391.00	0.0244
1392.00	0.0244
1393.00	0.0240
1394.00	0.0243
1395.00	0.0244
1396.00	0.0246
1397.00	0.0246
1398.00	0.0248
1399.00	0.0242
1400.00	0.0244
1401.00	0.0242
1402.00	0.0240
1403.00	0.0238
1404.00	0.0236
1405.00	0.0234
1406.00	0.0235
1407.00	0.0236
1408.00	0.0237
1409.00	0.0239
1410.00	0.0236
1411.00	0.0232
1412.00	0.0232
1413.00	0.0231
1414.00	0.0229
1415.00	0.0230
1416.00	0.0228
1417.00	0.0225
1418.00	0.0225
1419.00	0.0227
1420.00	0.0226
1421.00	0.0229
1422.00	0.0232
1423.00	0.0230
1424.00	0.0229
1425.00	0.0229
1426.00	0.0229
1427.00	0.0229
1428.00	0.0227
1429.00	0.0225
1430.00	0.0225
1431.00	0.0224
1432.00	0.0224
1433.00	0.0225
1434.00	0.0226
1435.00	0.0227
1436.00	0.0227
1437.00	0.0226
1438.00	0.0226
1439.00	0.0226
1440.00	0.0226
1441.00	0.0225
1442.00	0.0222
1443.00	0.0221
1444.00	0.0217
1445.00	0.0206
1446.00	0.0205
1447.00	0.0205
1448.00	0.0206
1449.00	0.0210
1450.00	0.0219
1451.00	0.0218
1452.00	0.0218
1453.00	0.0216
1454.00	0.0214
1455.00	0.0214
1456.00	0.0215
1457.00	0.0214
1458.00	0.0217
1459.00	0.0213
1460.00	0.0208
1461.00	0.0208
1462.00	0.0208
1463.00	0.0208
1464.00	0.0210
1465.00	0.0214
1466.00	0.0213
1467.00	0.0212
1468.00	0.0209
1469.00	0.0208
1470.00	0.0210
1471.00	0.0213
1472.00	0.0214
1473.00	0.0213
1474.00	0.0214
1475.00	0.0215
1476.00	0.0210
1477.00	0.0210
1478.00	0.0207
1479.00	0.0207
1480.00	0.0204
1481.00	0.0204
1482.00	0.0203
1483.00	0.0206
1484.00	0.0205
1485.00	0.0205
1486.00	0.0205
1487.00	0.0205
1488.00	0.0205
1489.00	0.0210
1490.00	0.0207
1491.00	0.0203
1492.00	0.0202
1493.00	0.0201
1494.00	0.0198
1495.00	0.0201
1496.00	0.0205
1497.00	0.0207
1498.00	0.0204
1499.00	0.0202
1500.00	0.0201
1501.00	0.0202
1502.00	0.0200
1503.00	0.0199
1504.00	0.0200
1505.00	0.0196
1506.00	0.0194
1507.00	0.0195
1508.00	0.0199
1509.00	0.0200
1510.00	0.0205
1511.00	0.0208
1512.00	0.0208
1513.00	0.0207
1514.00	0.0208
1515.00	0.0206
1516.00	0.0202
1517.00	0.0203
1518.00	0.0203
1519.00	0.0202
1520.00	0.0202
1521.00	0.0203
1522.00	0.0203
1523.00	0.0204
1524.00	0.0203
1525.00	0.0202
1526.00	0.0204
1527.00	0.0204
1528.00	0.0203
1529.00	0.0201
1530.00	0.0201
1531.00	0.0200
1532.00	0.0199
1533.00	0.0196
1534.00	0.0201
1535.00	0.0204
1536.00	0.0204
1537.00	0.0205
1538.00	0.0204
1539.00	0.0200
1540.00	0.0197
1541.00	0.0195
1542.00	0.0192
1543.00	0.0194
1544.00	0.0195
1545.00	0.0196
1546.00	0.0196
1547.00	0.0196
1548.00	0.0197
1549.00	0.0197
1550.00	0.0197
1551.00	0.0198
1552.00	0.0198
1553.00	0.0197
1554.00	0.0195
1555.00	0.0191
1556.00	0.0191
1557.00	0.0191
1558.00	0.0191
1559.00	0.0191
1560.00	0.0193
1561.00	0.0193
1562.00	0.0193
1563.00	0.0194
1564.00	0.0193
1565.00	0.0194
1566.00	0.0194
1567.00	0.0194
1568.00	0.0193
1569.00	0.0193
1570.00	0.0192
1571.00	0.0192
1572.00	0.0192
1573.00	0.0192
1574.00	0.0194
1575.00	0.0195
1576.00	0.0193
1577.00	0.0193
1578.00	0.0194
1579.00	0.0194
1580.00	0.0193
1581.00	0.0193
1582.00	0.0193
1583.00	0.0194
1584.00	0.0194
1585.00	0.0193
1586.00	0.0193
1587.00	0.0194
1588.00	0.0193
1589.00	0.0193
1590.00	0.0193
1591.00	0.0194
1592.00	0.0195
1593.00	0.0193
1594.00	0.0192
1595.00	0.0192
1596.00	0.0193
1597.00	0.0192
1598.00	0.0191
1599.00	0.0192
1600.00	0.0193
1601.00	0.0191
1602.00	0.0191
1603.00	0.0193
1604.00	0.0191
1605.00	0.0192
1606.00	0.0192
1607.00	0.0190
1608.00	0.0190
1609.00	0.0192
1610.00	0.0190
1611.00	0.0189
1612.00	0.0189
1613.00	0.0188
1614.00	0.0189
1615.00	0.0191
1616.00	0.0191
1617.00	0.0193
1618.00	0.0193
1619.00	0.0190
1620.00	0.0189
1621.00	0.0189
1622.00	0.0190
1623.00	0.0188
1624.00	0.0191
1625.00	0.0194
1626.00	0.0195
1627.00	0.0197
1628.00	0.0199
1629.00	0.0198
1630.00	0.0195
1631.00	0.0197
1632.00	0.0190
1633.00	0.0190
1634.00	0.0186
1635.00	0.0184
1636.00	0.0183
1637.00	0.0185
1638.00	0.0184
1639.00	0.0185
1640.00	0.0186
1641.00	0.0184
1642.00	0.0185
1643.00	0.0182
1644.00	0.0180
1645.00	0.0176
1646.00	0.0172
1647.00	0.0168
1648.00	0.0165
1649.00	0.0163
1650.00	0.0158
1651.00	0.0155
1652.00	0.0152
1653.00	0.0147
1654.00	0.0144
1655.00	0.0140
1656.00	0.0136
1657.00	0.0132
1658.00	0.0130
1659.00	0.0131
1660.00	0.0131
1661.00	0.0133
1662.00	0.0135
1663.00	0.0135
1664.00	0.0133
1665.00	0.0131
1666.00	0.0128
1667.00	0.0127
1668.00	0.0126
1669.00	0.0127
1670.00	0.0130
1671.00	0.0128
1672.00	0.0126
1673.00	0.0129
1674.00	0.0128
1675.00	0.0129
1676.00	0.0131
1677.00	0.0131
1678.00	0.0124
1679.00	0.0122
1680.00	0.0120
1681.00	0.0120
1682.00	0.0121
1683.00	0.0125
1684.00	0.0124
1685.00	0.0126
1686.00	0.0126
1687.00	0.0125
1688.00	0.0124
1689.00	0.0127
1690.00	0.0123
1691.00	0.0120
1692.00	0.0118
1693.00	0.0117
1694.00	0.0115
1695.00	0.0116
1696.00	0.0117
1697.00	0.0119
1698.00	0.0122
1699.00	0.0123
1700.00	0.0117
1701.00	0.0118
1702.00	0.0118
1703.00	0.0116
1704.00	0.0115
1705.00	0.0120
1706.00	0.0118
1707.00	0.0113
1708.00	0.0114
1709.00	0.0115
1710.00	0.0117
1711.00	0.0117
1712.00	0.0123
1713.00	0.0123
1714.00	0.0123
1715.00	0.0124
1716.00	0.0125
1717.00	0.0121
1718.00	0.0121
1719.00	0.0122
1720.00	0.0120
1721.00	0.0119
1722.00	0.0120
1723.00	0.0120
1724.00	0.0118
1725.00	0.0119
1726.00	0.0122
1727.00	0.0122
1728.00	0.0125
1729.00	0.0127
1730.00	0.0127
1731.00	0.0125
1732.00	0.0124
1733.00	0.0122
1734.00	0.0122
1735.00	0.0122
1736.00	0.0123
1737.00	0.0124
1738.00	0.0123
1739.00	0.0122
1740.00	0.0122
1741.00	0.0122
1742.00	0.0122
1743.00	0.0123
1744.00	0.0124
1745.00	0.0123
1746.00	0.0123
1747.00	0.0122
1748.00	0.0122
1749.00	0.0121
1750.00	0.0122
1751.00	0.0120
1752.00	0.0120
1753.00	0.0121
1754.00	0.0121
1755.00	0.0123
1756.00	0.0124
1757.00	0.0126
1758.00	0.0125
1759.00	0.0123
1760.00	0.0120
1761.00	0.0120
1762.00	0.0120
1763.00	0.0120
1764.00	0.0122
1765.00	0.0123
1766.00	0.0123
1767.00	0.0123
1768.00	0.0123
1769.00	0.0123
1770.00	0.0122
1771.00	0.0123
1772.00	0.0122
1773.00	0.0119
1774.00	0.0121
1775.00	0.0121
1776.00	0.0119
1777.00	0.0118
1778.00	0.0119
1779.00	0.0117
1780.00	0.0117
1781.00	0.0119
1782.00	0.0119
1783.00	0.0121
1784.00	0.0122
1785.00	0.0122
1786.00	0.0122
1787.00	0.0125
1788.00	0.0126
1789.00	0.0124
1790.00	0.0124
1791.00	0.0122
1792.00	0.0119
1793.00	0.0118
1794.00	0.0121
1795.00	0.0122
1796.00	0.0125
1797.00	0.0126
1798.00	0.0127
1799.00	0.0125
1800.00	0.0122
1801.00	0.0122
1802.00	0.0122
1803.00	0.0120
1804.00	0.0120
1805.00	0.0121
1806.00	0.0119
1807.00	0.0116
1808.00	0.0120
1809.00	0.0119
1810.00	0.0120
1811.00	0.0120
1812.00	0.0122
1813.00	0.0118
1814.00	0.0116
1815.00	0.0115
1816.00	0.0114
1817.00	0.0114
1818.00	0.0115
1819.00	0.0117
1820.00	0.0115
1821.00	0.0116
1822.00	0.0117
1823.00	0.0118
1824.00	0.0116
1825.00	0.0118
1826.00	0.0122
1827.00	0.0121
1828.00	0.0120
1829.00	0.0124
1830.00	0.0125
1831.00	0.0124
1832.00	0.0126
1833.00	0.0128
1834.00	0.0127
1835.00	0.0123
1836.00	0.0122
1837.00	0.0121
1838.00	0.0120
1839.00	0.0120
1840.00	0.0123
1841.00	0.0123
1842.00	0.0122
1843.00	0.0121
1844.00	0.0119
1845.00	0.0118
1846.00	0.0117
1847.00	0.0115
1848.00	0.0113
1849.00	0.0108
1850.00	0.0108
1851.00	0.0107
1852.00	0.0107
1853.00	0.0108
1854.00	0.0114
1855.00	0.0115
1856.00	0.0114
1857.00	0.0118
1858.00	0.0118
1859.00	0.0117
1860.00	0.0118
1861.00	0.0120
1862.00	0.0118
1863.00	0.0118
1864.00	0.0118
1865.00	0.0118
1866.00	0.0117
1867.00	0.0120
1868.00	0.0122
1869.00	0.0123
1870.00	0.0122
1871.00	0.0122
1872.00	0.0120
1873.00	0.0118
1874.00	0.0117
1875.00	0.0115
1876.00	0.0117
1877.00	0.0116
1878.00	0.0113
1879.00	0.0112
1880.00	0.0111
1881.00	0.0105
1882.00	0.0104
1883.00	0.0106
1884.00	0.0104
1885.00	0.0103
1886.00	0.0107
1887.00	0.0108
1888.00	0.0107
1889.00	0.0108
1890.00	0.0110
1891.00	0.0109
1892.00	0.0106
1893.00	0.0108
1894.00	0.0109
1895.00	0.0106
1896.00	0.0108
1897.00	0.0112
1898.00	0.0114
1899.00	0.0116
1900.00	0.0118
1901.00	0.0120
1902.00	0.0122
1903.00	0.0120
1904.00	0.0120
1905.00	0.0120
1906.00	0.0119
1907.00	0.0113
1908.00	0.0112
1909.00	0.0111
1910.00	0.0107
1911.00	0.0107
1912.00	0.0110
1913.00	0.0110
1914.00	0.0110
1915.00	0.0115
1916.00	0.0115
1917.00	0.0117
1918.00	0.0115
1919.00	0.0114
1920.00	0.0113
1921.00	0.0110
1922.00	0.0107
1923.00	0.0110
1924.00	0.0113
1925.00	0.0114
1926.00	0.0117
1927.00	0.0120
1928.00	0.0118
1929.00	0.0115
1930.00	0.0111
1931.00	0.0111
1932.00	0.0108
1933.00	0.0106
1934.00	0.0105
1935.00	0.0108
1936.00	0.0107
1937.00	0.0110
1938.00	0.0115
1939.00	0.0116
1940.00	0.0115
1941.00	0.0117
1942.00	0.0115
1943.00	0.0111
1944.00	0.0111
1945.00	0.0112
1946.00	0.0113
1947.00	0.0113
1948.00	0.0116
1949.00	0.0114
1950.00	0.0114
1951.00	0.0108
1952.00	0.0106
1953.00	0.0107
1954.00	0.0108
1955.00	0.0108
1956.00	0.0109
1957.00	0.0112
1958.00	0.0110
1959.00	0.0112
1960.00	0.0113
1961.00	0.0115
1962.00	0.0115
1963.00	0.0116
1964.00	0.0113
1965.00	0.0113
1966.00	0.0111
1967.00	0.0112
1968.00	0.0113
1969.00	0.0113
1970.00	0.0113
1971.00	0.0114
1972.00	0.0112
1973.00	0.0107
1974.00	0.0108
1975.00	0.0107
1976.00	0.0108
1977.00	0.0109
1978.00	0.0112
1979.00	0.0114
1980.00	0.0115
1981.00	0.0112
1982.00	0.0110
1983.00	0.0110
1984.00	0.0110
1985.00	0.0110
1986.00	0.0112
1987.00	0.0115
1988.00	0.0114
1989.00	0.0111
1990.00	0.0113
1991.00	0.0114
1992.00	0.0114
1993.00	0.0115
1994.00	0.0113
1995.00	0.0110
1996.00	0.0108
1997.00	0.0108
1998.00	0.0107
1999.00	0.0110
2000.00	0.0114
2001.00	0.0118
2002.00	0.0119
2003.00	0.0118
2004.00	0.0119
2005.00	0.0117
2006.00	0.0117
2007.00	0.0116
2008.00	0.0116
2009.00	0.0118
2010.00	0.0117
2011.00	0.0113
2012.00	0.0111
2013.00	0.0112
2014.00	0.0110
2015.00	0.0107
2016.00	0.0107
2017.00	0.0109
2018.00	0.0108
2019.00	0.0107
2020.00	0.0110
2021.00	0.0106
2022.00	0.0108
2023.00	0.0109
2024.00	0.0109
2025.00	0.0107
2026.00	0.0111
2027.00	0.0108
2028.00	0.0104
2029.00	0.0103
2030.00	0.0104
2031.00	0.0108
2032.00	0.0110
2033.00	0.0111
2034.00	0.0112
2035.00	0.0113
2036.00	0.0113
2037.00	0.0112
2038.00	0.0112
2039.00	0.0110
2040.00	0.0109
2041.00	0.0107
2042.00	0.0104
2043.00	0.0103
2044.00	0.0108
2045.00	0.0109
2046.00	0.0110
2047.00	0.0112
2048.00	0.0109
2049.00	0.0108
2050.00	0.0106
2051.00	0.0104
2052.00	0.0102
2053.00	0.0108
2054.00	0.0106
2055.00	0.0108
2056.00	0.0110
2057.00	0.0113
2058.00	0.0109
2059.00	0.0109
2060.00	0.0107
2061.00	0.0109
2062.00	0.0108
2063.00	0.0110
2064.00	0.0111
2065.00	0.0109
2066.00	0.0109
2067.00	0.0108
2068.00	0.0109
2069.00	0.0109
2070.00	0.0110
2071.00	0.0109
2072.00	0.0108
2073.00	0.0106
2074.00	0.0106
2075.00	0.0107
2076.00	0.0104
2077.00	0.0104
2078.00	0.0107
2079.00	0.0106
2080.00	0.0101
2081.00	0.0099
2082.00	0.0102
2083.00	0.0102
2084.00	0.0102
2085.00	0.0109
2086.00	0.0114
2087.00	0.0114
2088.00	0.0112
2089.00	0.0106
2090.00	0.0101
2091.00	0.0101
2092.00	0.0098
2093.00	0.0096
2094.00	0.0098
2095.00	0.0099
2096.00	0.0098
2097.00	0.0095
2098.00	0.0096
2099.00	0.0098
2100.00	0.0100
2101.00	0.0101
2102.00	0.0103
2103.00	0.0103
2104.00	0.0103
2105.00	0.0097
2106.00	0.0093
2107.00	0.0096
2108.00	0.0098
2109.00	0.0099
2110.00	0.0103
2111.00	0.0106
2112.00	0.0106
2113.00	0.0104
2114.00	0.0102
2115.00	0.0101
2116.00	0.0100
2117.00	0.0099
2118.00	0.0099
2119.00	0.0100
2120.00	0.0101
2121.00	0.0097
2122.00	0.0097
2123.00	0.0100
2124.00	0.0099
2125.00	0.0099
2126.00	0.0105
2127.00	0.0103
2128.00	0.0103
2129.00	0.0101
2130.00	0.0104
2131.00	0.0101
2132.00	0.0103
2133.00	0.0105
2134.00	0.0107
2135.00	0.0106
2136.00	0.0104
2137.00	0.0102
2138.00	0.0100
2139.00	0.0102
2140.00	0.0101
2141.00	0.0102
2142.00	0.0105
2143.00	0.0106
2144.00	0.0102
2145.00	0.0106
2146.00	0.0109
2147.00	0.0107
2148.00	0.0108
2149.00	0.0110
2150.00	0.0103
2151.00	0.0103
2152.00	0.0104
2153.00	0.0100
2154.00	0.0096
2155.00	0.0100
2156.00	0.0102
2157.00	0.0098
2158.00	0.0101
2159.00	0.0100
2160.00	0.0095
2161.00	0.0092
2162.00	0.0095
2163.00	0.0097
2164.00	0.0101
2165.00	0.0108
2166.00	0.0111
2167.00	0.0113
2168.00	0.0114
2169.00	0.0112
2170.00	0.0108
2171.00	0.0106
2172.00	0.0108
2173.00	0.0105
2174.00	0.0105
2175.00	0.0108
2176.00	0.0110
2177.00	0.0111
2178.00	0.0109
2179.00	0.0105
2180.00	0.0111
2181.00	0.0112
2182.00	0.0109
2183.00	0.0111
2184.00	0.0118
2185.00	0.0114
2186.00	0.0113
2187.00	0.0113
2188.00	0.0117
2189.00	0.0118
2190.00	0.0121
2191.00	0.0121
2192.00	0.0125
2193.00	0.0126
2194.00	0.0126
2195.00	0.0125
2196.00	0.0128
2197.00	0.0132
2198.00	0.0135
2199.00	0.0141
2200.00	0.0145
2201.00	0.0150
2202.00	0.0149
2203.00	0.0149
2204.00	0.0147
2205.00	0.0145
2206.00	0.0143
2207.00	0.0144
2208.00	0.0142
2209.00	0.0143
2210.00	0.0145
2211.00	0.0149
2212.00	0.0150
2213.00	0.0149
2214.00	0.0149
2215.00	0.0150
2216.00	0.0148
2217.00	0.0144
2218.00	0.0147
2219.00	0.0149
2220.00	0.0149
2221.00	0.0142
2222.00	0.0140
2223.00	0.0138
2224.00	0.0135
2225.00	0.0132
2226.00	0.0136
2227.00	0.0140
2228.00	0.0139
2229.00	0.0136
2230.00	0.0133
2231.00	0.0133
2232.00	0.0137
2233.00	0.0138
2234.00	0.0138
2235.00	0.0142
2236.00	0.0141
2237.00	0.0138
2238.00	0.0135
2239.00	0.0137
2240.00	0.0140
2241.00	0.0140
2242.00	0.0139
2243.00	0.0141
2244.00	0.0142
2245.00	0.0140
2246.00	0.0140
2247.00	0.0141
2248.00	0.0144
2249.00	0.0141
2250.00	0.0143
2251.00	0.0141
2252.00	0.0142
2253.00	0.0141
2254.00	0.0140
2255.00	0.0137
2256.00	0.0136
2257.00	0.0136
2258.00	0.0136
2259.00	0.0136
2260.00	0.0139
2261.00	0.0142
2262.00	0.0140
2263.00	0.0139
2264.00	0.0138
2265.00	0.0136
2266.00	0.0132
2267.00	0.0130
2268.00	0.0128
2269.00	0.0129
2270.00	0.0127
2271.00	0.0127
2272.00	0.0124
2273.00	0.0120
2274.00	0.0115
2275.00	0.0114
2276.00	0.0114
2277.00	0.0116
2278.00	0.0117
2279.00	0.0119
2280.00	0.0116
2281.00	0.0114
2282.00	0.0110
2283.00	0.0110
2284.00	0.0109
2285.00	0.0112
2286.00	0.0114
2287.00	0.0116
2288.00	0.0114
2289.00	0.0114
2290.00	0.0112
2291.00	0.0108
2292.00	0.0108
2293.00	0.0109
2294.00	0.0108
2295.00	0.0111
2296.00	0.0114
2297.00	0.0112
2298.00	0.0112
2299.00	0.0112
2300.00	0.0108
2301.00	0.0107
2302.00	0.0108
2303.00	0.0106
2304.00	0.0105
2305.00	0.0102
2306.00	0.0103
2307.00	0.0102
2308.00	0.0101
2309.00	0.0102
2310.00	0.0103
2311.00	0.0100
2312.00	0.0101
2313.00	0.0100
2314.00	0.0099
2315.00	0.0101
2316.00	0.0101
2317.00	0.0097
2318.00	0.0096
2319.00	0.0096
2320.00	0.0098
2321.00	0.0100
2322.00	0.0103
2323.00	0.0109
2324.00	0.0111
2325.00	0.0107
2326.00	0.0105
2327.00	0.0102
2328.00	0.0097
2329.00	0.0096
2330.00	0.0098
2331.00	0.0098
2332.00	0.0099
2333.00	0.0103
2334.00	0.0105
2335.00	0.0102
2336.00	0.0103
2337.00	0.0101
2338.00	0.0099
2339.00	0.0096
2340.00	0.0097
2341.00	0.0096
2342.00	0.0098
2343.00	0.0097
2344.00	0.0098
2345.00	0.0097
2346.00	0.0097
2347.00	0.0093
2348.00	0.0093
2349.00	0.0092
2350.00	0.0093
2351.00	0.0094
2352.00	0.0095
2353.00	0.0094
2354.00	0.0095
2355.00	0.0095
2356.00	0.0094
2357.00	0.0097
2358.00	0.0097
2359.00	0.0098
2360.00	0.0096
2361.00	0.0095
2362.00	0.0094
2363.00	0.0095
2364.00	0.0093
2365.00	0.0090
2366.00	0.0091
2367.00	0.0092
2368.00	0.0090
2369.00	0.0091
2370.00	0.0096
2371.00	0.0098
2372.00	0.0097
2373.00	0.0096
2374.00	0.0099
2375.00	0.0098
2376.00	0.0095
2377.00	0.0097
2378.00	0.0100
2379.00	0.0098
2380.00	0.0095
2381.00	0.0093
2382.00	0.0091
2383.00	0.0091
2384.00	0.0088
2385.00	0.0090
2386.00	0.0096
2387.00	0.0098
2388.00	0.0096
2389.00	0.0095
2390.00	0.0096
2391.00	0.0095
2392.00	0.0095
2393.00	0.0096
2394.00	0.0097
2395.00	0.0099
2396.00	0.0096
2397.00	0.0096
2398.00	0.0097
2399.00	0.0104
2400.00	0.0106
2401.00	0.0107
2402.00	0.0102
2403.00	0.0098
2404.00	0.0088
2405.00	0.0087
2406.00	0.0090
2407.00	0.0092
2408.00	0.0094
2409.00	0.0100
2410.00	0.0101
2411.00	0.0099
2412.00	0.0100
2413.00	0.0100
2414.00	0.0102
2415.00	0.0098
2416.00	0.0100
2417.00	0.0105
2418.00	0.0106
2419.00	0.0107
2420.00	0.0108
2421.00	0.0100
2422.00	0.0095
2423.00	0.0090
2424.00	0.0087
2425.00	0.0081
2426.00	0.0088
2427.00	0.0089
2428.00	0.0093
2429.00	0.0092
2430.00	0.0098
2431.00	0.0096
2432.00	0.0095
2433.00	0.0093
2434.00	0.0093
2435.00	0.0097
2436.00	0.0098
2437.00	0.0101
2438.00	0.0103
2439.00	0.0107
2440.00	0.0108
2441.00	0.0108
2442.00	0.0108
2443.00	0.0110
2444.00	0.0106
2445.00	0.0105
2446.00	0.0104
2447.00	0.0103
2448.00	0.0101
2449.00	0.0100
2450.00	0.0096
2451.00	0.0095
2452.00	0.0098
2453.00	0.0098
2454.00	0.0096
2455.00	0.0099
2456.00	0.0098
2457.00	0.0098
2458.00	0.0099
2459.00	0.0100
2460.00	0.0099
2461.00	0.0099
2462.00	0.0098
2463.00	0.0095
2464.00	0.0094
2465.00	0.0097
2466.00	0.0100
2467.00	0.0098
2468.00	0.0102
2469.00	0.0103
2470.00	0.0102
2471.00	0.0102
2472.00	0.0104
2473.00	0.0104
2474.00	0.0104
2475.00	0.0104
2476.00	0.0106
2477.00	0.0107
2478.00	0.0105
2479.00	0.0105
2480.00	0.0105
2481.00	0.0105
2482.00	0.0100
2483.00	0.0100
2484.00	0.0098
2485.00	0.0097
2486.00	0.0096
2487.00	0.0098
2488.00	0.0099
2489.00	0.0101
2490.00	0.0098
2491.00	0.0097
2492.00	0.0097
2493.00	0.0095
2494.00	0.0098
2495.00	0.0100
2496.00	0.0104
2497.00	0.0104
2498.00	0.0101
2499.00	0.0102
2500.00	0.0105
2501.00	0.0110
2502.00	0.0109
2503.00	0.0111
2504.00	0.0116
2505.00	0.0116
2506.00	0.0119
2507.00	0.0119
2508.00	0.0117
2509.00	0.0119
2510.00	0.0121
2511.00	0.0122
2512.00	0.0121
2513.00	0.0120
2514.00	0.0120
2515.00	0.0121
2516.00	0.0120
2517.00	0.0120
2518.00	0.0121
2519.00	0.0124
2520.00	0.0125
2521.00	0.0125
2522.00	0.0127
2523.00	0.0128
2524.00	0.0127
2525.00	0.0125
2526.00	0.0126
2527.00	0.0126
2528.00	0.0127
2529.00	0.0128
2530.00	0.0127
2531.00	0.0130
2532.00	0.0131
2533.00	0.0131
2534.00	0.0131
2535.00	0.0130
2536.00	0.0129
2537.00	0.0130
2538.00	0.0130
2539.00	0.0133
2540.00	0.0135
2541.00	0.0135
2542.00	0.0139
2543.00	0.0140
2544.00	0.0142
2545.00	0.0140
2546.00	0.0138
2547.00	0.0138
2548.00	0.0138
2549.00	0.0133
2550.00	0.0132
2551.00	0.0130
2552.00	0.0132
2553.00	0.0128
2554.00	0.0123
2555.00	0.0123
2556.00	0.0124
2557.00	0.0126
2558.00	0.0126
2559.00	0.0126
2560.00	0.0133
2561.00	0.0142
2562.00	0.0145
2563.00	0.0148
2564.00	0.0150
2565.00	0.0152
2566.00	0.0152
2567.00	0.0151
2568.00	0.0147
2569.00	0.0147
2570.00	0.0145
2571.00	0.0143
2572.00	0.0143
2573.00	0.0152
2574.00	0.0147
2575.00	0.0148
2576.00	0.0150
2577.00	0.0148
2578.00	0.0148
2579.00	0.0146
2580.00	0.0139
2581.00	0.0142
2582.00	0.0143
2583.00	0.0140
2584.00	0.0143
2585.00	0.0142
2586.00	0.0147
2587.00	0.0150
2588.00	0.0153
2589.00	0.0155
2590.00	0.0155
2591.00	0.0156
2592.00	0.0159
2593.00	0.0156
2594.00	0.0149
2595.00	0.0147
2596.00	0.0141
2597.00	0.0135
2598.00	0.0132
2599.00	0.0128
2600.00	0.0127
2601.00	0.0127
2602.00	0.0125
2603.00	0.0121
2604.00	0.0127
2605.00	0.0130
2606.00	0.0132
2607.00	0.0136
2608.00	0.0140
2609.00	0.0147
2610.00	0.0160
2611.00	0.0162
2612.00	0.0165
2613.00	0.0169
2614.00	0.0169
2615.00	0.0172
2616.00	0.0171
2617.00	0.0167
2618.00	0.0167
2619.00	0.0169
2620.00	0.0164
2621.00	0.0161
2622.00	0.0159
2623.00	0.0157
2624.00	0.0157
2625.00	0.0160
2626.00	0.0161
2627.00	0.0163
2628.00	0.0168
2629.00	0.0170
2630.00	0.0175
2631.00	0.0181
2632.00	0.0182
2633.00	0.0183
2634.00	0.0187
2635.00	0.0189
2636.00	0.0192
2637.00	0.0193
2638.00	0.0191
2639.00	0.0193
2640.00	0.0193
2641.00	0.0193
2642.00	0.0191
2643.00	0.0191
2644.00	0.0193
2645.00	0.0193
2646.00	0.0194
2647.00	0.0197
2648.00	0.0197
2649.00	0.0198
2650.00	0.0197
2651.00	0.0195
2652.00	0.0195
2653.00	0.0192
2654.00	0.0189
2655.00	0.0187
2656.00	0.0185
2657.00	0.0185
2658.00	0.0185
2659.00	0.0179
2660.00	0.0182
2661.00	0.0186
2662.00	0.0183
2663.00	0.0189
2664.00	0.0190
2665.00	0.0201
2666.00	0.0220
2667.00	0.0243
2668.00	0.0265
2669.00	0.0293
2670.00	0.0321
2671.00	0.0348
2672.00	0.0372
2673.00	0.0387
2674.00	0.0406
2675.00	0.0412
2676.00	0.0435
2677.00	0.0450
2678.00	0.0471
2679.00	0.0490
2680.00	0.0519
2681.00	0.0544
2682.00	0.0585
2683.00	0.0617
2684.00	0.0658
2685.00	0.0693
2686.00	0.0744
2687.00	0.0791
2688.00	0.0844
2689.00	0.0910
2690.00	0.0973
2691.00	0.1050
2692.00	0.1151
2693.00	0.1244
2694.00	0.1355
2695.00	0.1453
2696.00	0.1525
2697.00	0.1658
2698.00	0.1735
2699.00	0.1799
2700.00	0.1864
2701.00	0.1931
2702.00	0.1984
2703.00	0.2038
2704.00	0.2095
2705.00	0.2176
2706.00	0.2215
2707.00	0.2258
2708.00	0.2312
2709.00	0.2363
2710.00	0.2401
2711.00	0.2438
2712.00	0.2488
2713.00	0.2522
2714.00	0.2539
2715.00	0.2574
2716.00	0.2596
2717.00	0.2611
2718.00	0.2636
2719.00	0.2649
2720.00	0.2683
2721.00	0.2696
2722.00	0.2695
2723.00	0.2690
2724.00	0.2699
2725.00	0.2713
2726.00	0.2725
2727.00	0.2708
2728.00	0.2693
2729.00	0.2668
2730.00	0.2665
2731.00	0.2634
2732.00	0.2616
2733.00	0.2593
2734.00	0.2568
2735.00	0.2550
2736.00	0.2513
2737.00	0.2459
2738.00	0.2430
2739.00	0.2407
2740.00	0.2384
2741.00	0.2341
2742.00	0.2313
2743.00	0.2290
2744.00	0.2272
2745.00	0.2260
2746.00	0.2243
2747.00	0.2215
2748.00	0.2204
2749.00	0.2194
2750.00	0.2168
2751.00	0.2164
2752.00	0.2139
2753.00	0.2090
2754.00	0.2067
2755.00	0.2057
2756.00	0.2015
2757.00	0.1970
2758.00	0.1943
2759.00	0.1909
2760.00	0.1861
2761.00	0.1832
2762.00	0.1794
2763.00	0.1767
2764.00	0.1750
2765.00	0.1708
2766.00	0.1663
2767.00	0.1631
2768.00	0.1615
2769.00	0.1594
2770.00	0.1565
2771.00	0.1550
2772.00	0.1522
2773.00	0.1495
2774.00	0.1472
2775.00	0.1448
2776.00	0.1424
2777.00	0.1403
2778.00	0.1382
2779.00	0.1355
2780.00	0.1334
2781.00	0.1313
2782.00	0.1282
2783.00	0.1265
2784.00	0.1248
2785.00	0.1228
2786.00	0.1203
2787.00	0.1188
2788.00	0.1165
2789.00	0.1145
2790.00	0.1125
2791.00	0.1108
2792.00	0.1090
2793.00	0.1076
2794.00	0.1054
2795.00	0.1036
2796.00	0.1019
2797.00	0.1002
2798.00	0.0981
2799.00	0.0957
2800.00	0.0935
2801.00	0.0916
2802.00	0.0897
2803.00	0.0873
2804.00	0.0853
2805.00	0.0838
2806.00	0.0817
2807.00	0.0799
2808.00	0.0781
2809.00	0.0762
2810.00	0.0750
2811.00	0.0735
2812.00	0.0719
2813.00	0.0702
2814.00	0.0690
2815.00	0.0675
2816.00	0.0659
2817.00	0.0648
2818.00	0.0634
2819.00	0.0623
2820.00	0.0614
2821.00	0.0603
2822.00	0.0592
2823.00	0.0580
2824.00	0.0568
2825.00	0.0558
2826.00	0.0548
2827.00	0.0535
2828.00	0.0526
2829.00	0.0515
2830.00	0.0504
2831.00	0.0493
2832.00	0.0484
2833.00	0.0473
2834.00	0.0466
2835.00	0.0459
2836.00	0.0452
2837.00	0.0442
2838.00	0.0435
2839.00	0.0428
2840.00	0.0421
2841.00	0.0414
2842.00	0.0408
2843.00	0.0402
2844.00	0.0396
2845.00	0.0386
2846.00	0.0379
2847.00	0.0372
2848.00	0.0366
2849.00	0.0361
2850.00	0.0354
2851.00	0.0349
2852.00	0.0344
2853.00	0.0337
2854.00	0.0331
2855.00	0.0325
2856.00	0.0322
2857.00	0.0317
2858.00	0.0313
2859.00	0.0309
2860.00	0.0303
2861.00	0.0299
2862.00	0.0296
2863.00	0.0291
2864.00	0.0287
2865.00	0.0283
2866.00	0.0282
2867.00	0.0279
2868.00	0.0277
2869.00	0.0274
2870.00	0.0269
2871.00	0.0268
2872.00	0.0264
2873.00	0.0262
2874.00	0.0259
2875.00	0.0255
2876.00	0.0252
2877.00	0.0248
2878.00	0.0244
2879.00	0.0244
2880.00	0.0241
2881.00	0.0240
2882.00	0.0236
2883.00	0.0234
2884.00	0.0230
2885.00	0.0228
2886.00	0.0226
2887.00	0.0224
2888.00	0.0221
2889.00	0.0220
2890.00	0.0215
2891.00	0.0213
2892.00	0.0210
2893.00	0.0208
2894.00	0.0206
2895.00	0.0203
2896.00	0.0199
2897.00	0.0196
2898.00	0.0194
2899.00	0.0192
2900.00	0.0190
2901.00	0.0187
2902.00	0.0185
2903.00	0.0184
2904.00	0.0181
2905.00	0.0178
2906.00	0.0175
2907.00	0.0177
2908.00	0.0176
2909.00	0.0172
2910.00	0.0171
2911.00	0.0168
2912.00	0.0169
2913.00	0.0167
2914.00	0.0165
2915.00	0.0165
2916.00	0.0164
2917.00	0.0164
2918.00	0.0161
2919.00	0.0160
2920.00	0.0160
2921.00	0.0156
2922.00	0.0155
2923.00	0.0153
2924.00	0.0154
2925.00	0.0151
2926.00	0.0148
2927.00	0.0146
2928.00	0.0143
2929.00	0.0142
2930.00	0.0139
2931.00	0.0138
2932.00	0.0138
2933.00	0.0137
2934.00	0.0136
2935.00	0.0132
2936.00	0.0131
2937.00	0.0132
2938.00	0.0132
2939.00	0.0131
2940.00	0.0130
2941.00	0.0132
2942.00	0.0130
2943.00	0.0131
2944.00	0.0131
2945.00	0.0127
2946.00	0.0128
2947.00	0.0126
2948.00	0.0126
2949.00	0.0124
2950.00	0.0124
2951.00	0.0123
2952.00	0.0121
2953.00	0.0120
2954.00	0.0118
2955.00	0.0118
2956.00	0.0118
2957.00	0.0117
2958.00	0.0117
2959.00	0.0116
2960.00	0.0113
2961.00	0.0110
2962.00	0.0112
2963.00	0.0113
2964.00	0.0113
2965.00	0.0112
2966.00	0.0111
2967.00	0.0111
2968.00	0.0111
2969.00	0.0111
2970.00	0.0111
2971.00	0.0115
2972.00	0.0116
2973.00	0.0114
2974.00	0.0114
2975.00	0.0112
2976.00	0.0112
2977.00	0.0111
2978.00	0.0112
2979.00	0.0112
2980.00	0.0112
2981.00	0.0111
2982.00	0.0110
2983.00	0.0109
2984.00	0.0109
2985.00	0.0108
2986.00	0.0109
2987.00	0.0111
2988.00	0.0111
2989.00	0.0109
2990.00	0.0107
2991.00	0.0104
2992.00	0.0107
2993.00	0.0106
2994.00	0.0105
2995.00	0.0104
2996.00	0.0116
2997.00	0.0127
2998.00	0.0136
2999.00	0.0148
3000.00	0.0160
3001.00	0.0168
3002.00	0.0174
3003.00	0.0182
3004.00	0.0189
3005.00	0.0197
3006.00	0.0203
3007.00	0.0209
3008.00	0.0215
3009.00	0.0223
3010.00	0.0222
3011.00	0.0221
3012.00	0.0221
3013.00	0.0219
3014.00	0.0217
3015.00	0.0218
3016.00	0.0217
3017.00	0.0217
3018.00	0.0217
3019.00	0.0217
3020.00	0.0215
3021.00	0.0215
3022.00	0.0215
3023.00	0.0214
3024.00	0.0214
3025.00	0.0214
3026.00	0.0213
3027.00	0.0213
3028.00	0.0213
3029.00	0.0213
3030.00	0.0214
3031.00	0.0214
3032.00	0.0213
3033.00	0.0213
3034.00	0.0212
3035.00	0.0210
3036.00	0.0210
3037.00	0.0211
3038.00	0.0210
3039.00	0.0210
3040.00	0.0209
3041.00	0.0208
3042.00	0.0207
3043.00	0.0207
3044.00	0.0208
3045.00	0.0208
3046.00	0.0207
3047.00	0.0207
3048.00	0.0207
3049.00	0.0207
3050.00	0.0208
3051.00	0.0209
3052.00	0.0211
3053.00	0.0211
3054.00	0.0211
3055.00	0.0212
3056.00	0.0213
3057.00	0.0213
3058.00	0.0214
3059.00	0.0217
3060.00	0.0217
3061.00	0.0215
3062.00	0.0215
3063.00	0.0216
3064.00	0.0215
3065.00	0.0216
3066.00	0.0218
3067.00	0.0217
3068.00	0.0216
3069.00	0.0214
3070.00	0.0216
3071.00	0.0216
3072.00	0.0218
3073.00	0.0218
3074.00	0.0220
3075.00	0.0219
3076.00	0.0219
3077.00	0.0218
3078.00	0.0220
3079.00	0.0219
3080.00	0.0219
3081.00	0.0220
3082.00	0.0221
3083.00	0.0220
3084.00	0.0219
3085.00	0.0221
3086.00	0.0222
3087.00	0.0220
3088.00	0.0220
3089.00	0.0219
3090.00	0.0217
3091.00	0.0216
3092.00	0.0217
3093.00	0.0216
3094.00	0.0217
3095.00	0.0215
3096.00	0.0215
3097.00	0.0215
3098.00	0.0213
3099.00	0.0212
3100.00	0.0213
3101.00	0.0214
3102.00	0.0213
3103.00	0.0214
3104.00	0.0216
3105.00	0.0214
3106.00	0.0213
3107.00	0.0213
3108.00	0.0212
3109.00	0.0212
3110.00	0.0211
3111.00	0.0210
3112.00	0.0209
3113.00	0.0209
3114.00	0.0208
3115.00	0.0209
3116.00	0.0208
3117.00	0.0206
3118.00	0.0204
3119.00	0.0202
3120.00	0.0199
3121.00	0.0196
3122.00	0.0196
3123.00	0.0196
3124.00	0.0194
3125.00	0.0192
3126.00	0.0192
3127.00	0.0190
3128.00	0.0191
3129.00	0.0191
3130.00	0.0190
3131.00	0.0189
3132.00	0.0188
3133.00	0.0187
3134.00	0.0187
3135.00	0.0186
3136.00	0.0187
3137.00	0.0186
3138.00	0.0188
3139.00	0.0187
3140.00	0.0186
3141.00	0.0187
3142.00	0.0187
3143.00	0.0186
3144.00	0.0190
3145.00	0.0191
3146.00	0.0189
3147.00	0.0185
3148.00	0.0186
3149.00	0.0184
3150.00	0.0182
3151.00	0.0181
3152.00	0.0178
3153.00	0.0181
3154.00	0.0180
3155.00	0.0178
3156.00	0.0176
3157.00	0.0176
3158.00	0.0177
3159.00	0.0178
3160.00	0.0180
3161.00	0.0176
3162.00	0.0175
3163.00	0.0175
3164.00	0.0178
3165.00	0.0180
3166.00	0.0182
3167.00	0.0181
3168.00	0.0180
3169.00	0.0181
3170.00	0.0179
3171.00	0.0181
3172.00	0.0188
3173.00	0.0194
3174.00	0.0196
3175.00	0.0197
3176.00	0.0199
3177.00	0.0196
3178.00	0.0199
3179.00	0.0198
3180.00	0.0196
3181.00	0.0197
3182.00	0.0197
3183.00	0.0200
3184.00	0.0205
3185.00	0.0202
3186.00	0.0203
3187.00	0.0205
3188.00	0.0207
3189.00	0.0204
3190.00	0.0207
3191.00	0.0205
3192.00	0.0201
3193.00	0.0197
3194.00	0.0202
3195.00	0.0202
3196.00	0.0201
3197.00	0.0201
3198.00	0.0200
3199.00	0.0202
3200.00	0.0195
3201.00	0.0192
3202.00	0.0198
3203.00	0.0203
3204.00	0.0203
3205.00	0.0195
3206.00	0.0193
3207.00	0.0184
3208.00	0.0186
3209.00	0.0189
3210.00	0.0198
3211.00	0.0193
3212.00	0.0197
3213.00	0.0201
3214.00	0.0202
3215.00	0.0203
3216.00	0.0197
3217.00	0.0202
3218.00	0.0200
3219.00	0.0201
3220.00	0.0201
3221.00	0.0205
3222.00	0.0206
3223.00	0.0205
3224.00	0.0210
3225.00	0.0213
3226.00	0.0213
3227.00	0.0204
3228.00	0.0204
3229.00	0.0197
3230.00	0.0197
3231.00	0.0195
3232.00	0.0199
3233.00	0.0206
3234.00	0.0207
3235.00	0.0210
3236.00	0.0202
3237.00	0.0200
3238.00	0.0197
3239.00	0.0195
3240.00	0.0194
3241.00	0.0191
3242.00	0.0181
3243.00	0.0180
3244.00	0.0186
3245.00	0.0177
3246.00	0.0181
3247.00	0.0176
3248.00	0.0177
3249.00	0.0172
3250.00	0.0163
3251.00	0.0166
3252.00	0.0160
3253.00	0.0167
3254.00	0.0175
3255.00	0.0169
3256.00	0.0175
3257.00	0.0175
3258.00	0.0177
3259.00	0.0185
3260.00	0.0180
3261.00	0.0176
3262.00	0.0177
3263.00	0.0158
3264.00	0.0167
3265.00	0.0175
3266.00	0.0180
3267.00	0.0187
3268.00	0.0157
3269.00	0.0172
3270.00	0.0170
3271.00	0.0153
3272.00	0.0135
3273.00	0.0139
3274.00	0.0146
3275.00	0.0133
3276.00	0.0139
3277.00	0.0126
3278.00	0.0147
3279.00	0.0154
3280.00	0.0163
3281.00	0.0168
3282.00	0.0180
3283.00	0.0162
3284.00	0.0148
3285.00	0.0162
3286.00	0.0155
3287.00	0.0164
3288.00	0.0165
3289.00	0.0194
3290.00	0.0185
3291.00	0.0161
3292.00	0.0194
3293.00	0.0204
3294.00	0.0244
3295.00	0.0243
3296.00	0.0263
3297.00	0.0291
3298.00	0.0301
3299.00	0.0305
3300.00	0.0338
