"20-30mM-1_Xylene20mM - RawData"
"Wavelength nm."	"Abs."
300.00	0.1017
301.00	0.1026
302.00	0.1038
303.00	0.1051
304.00	0.1060
305.00	0.1066
306.00	0.1078
307.00	0.1091
308.00	0.1107
309.00	0.1124
310.00	0.1134
311.00	0.1144
312.00	0.1158
313.00	0.1171
314.00	0.1186
315.00	0.1207
316.00	0.1229
317.00	0.1248
318.00	0.1267
319.00	0.1285
320.00	0.1300
321.00	0.1317
322.00	0.1333
323.00	0.1351
324.00	0.1365
325.00	0.1381
326.00	0.1396
327.00	0.1411
328.00	0.1426
329.00	0.1443
330.00	0.1459
331.00	0.1472
332.00	0.1480
333.00	0.1496
334.00	0.1513
335.00	0.1531
336.00	0.1553
337.00	0.1578
338.00	0.1595
339.00	0.1612
340.00	0.1629
341.00	0.1644
342.00	0.1659
343.00	0.1676
344.00	0.1691
345.00	0.1706
346.00	0.1719
347.00	0.1732
348.00	0.1741
349.00	0.1750
350.00	0.1758
351.00	0.1766
352.00	0.1775
353.00	0.1782
354.00	0.1791
355.00	0.1797
356.00	0.1803
357.00	0.1808
358.00	0.1813
359.00	0.1815
360.00	0.1817
361.00	0.1818
362.00	0.1815
363.00	0.1820
364.00	0.1827
365.00	0.1835
366.00	0.1843
367.00	0.1856
368.00	0.1859
369.00	0.1864
370.00	0.1870
371.00	0.1883
372.00	0.1885
373.00	0.1889
374.00	0.1891
375.00	0.1890
376.00	0.1885
377.00	0.1889
378.00	0.1893
379.00	0.1896
380.00	0.1900
381.00	0.1904
382.00	0.1908
383.00	0.1917
384.00	0.1927
385.00	0.1938
386.00	0.1949
387.00	0.1961
388.00	0.1967
389.00	0.1972
390.00	0.1978
391.00	0.1984
392.00	0.1992
393.00	0.2001
394.00	0.2010
395.00	0.2017
396.00	0.2023
397.00	0.2026
398.00	0.2027
399.00	0.2031
400.00	0.2035
401.00	0.2042
402.00	0.2049
403.00	0.2060
404.00	0.2066
405.00	0.2074
406.00	0.2080
407.00	0.2087
408.00	0.2094
409.00	0.2102
410.00	0.2110
411.00	0.2118
412.00	0.2124
413.00	0.2131
414.00	0.2137
415.00	0.2142
416.00	0.2147
417.00	0.2151
418.00	0.2155
419.00	0.2155
420.00	0.2156
421.00	0.2155
422.00	0.2154
423.00	0.2150
424.00	0.2146
425.00	0.2141
426.00	0.2136
427.00	0.2132
428.00	0.2129
429.00	0.2126
430.00	0.2122
431.00	0.2119
432.00	0.2115
433.00	0.2112
434.00	0.2108
435.00	0.2105
436.00	0.2100
437.00	0.2094
438.00	0.2088
439.00	0.2082
440.00	0.2075
441.00	0.2068
442.00	0.2061
443.00	0.2055
444.00	0.2049
445.00	0.2043
446.00	0.2037
447.00	0.2031
448.00	0.2025
449.00	0.2020
450.00	0.2018
451.00	0.2016
452.00	0.2015
453.00	0.2016
454.00	0.2016
455.00	0.2017
456.00	0.2018
457.00	0.2019
458.00	0.2019
459.00	0.2020
460.00	0.2023
461.00	0.2025
462.00	0.2030
463.00	0.2032
464.00	0.2036
465.00	0.2037
466.00	0.2039
467.00	0.2040
468.00	0.2042
469.00	0.2042
470.00	0.2042
471.00	0.2045
472.00	0.2048
473.00	0.2051
474.00	0.2055
475.00	0.2061
476.00	0.2065
477.00	0.2070
478.00	0.2076
479.00	0.2081
480.00	0.2085
481.00	0.2090
482.00	0.2094
483.00	0.2099
484.00	0.2103
485.00	0.2105
486.00	0.2107
487.00	0.2108
488.00	0.2108
489.00	0.2108
490.00	0.2109
491.00	0.2110
492.00	0.2110
493.00	0.2112
494.00	0.2114
495.00	0.2115
496.00	0.2116
497.00	0.2116
498.00	0.2117
499.00	0.2119
500.00	0.2120
501.00	0.2122
502.00	0.2123
503.00	0.2123
504.00	0.2122
505.00	0.2122
506.00	0.2120
507.00	0.2119
508.00	0.2118
509.00	0.2117
510.00	0.2113
511.00	0.2111
512.00	0.2108
513.00	0.2105
514.00	0.2100
515.00	0.2095
516.00	0.2090
517.00	0.2086
518.00	0.2081
519.00	0.2075
520.00	0.2070
521.00	0.2067
522.00	0.2062
523.00	0.2057
524.00	0.2051
525.00	0.2044
526.00	0.2036
527.00	0.2028
528.00	0.2022
529.00	0.2020
530.00	0.2022
531.00	0.2014
532.00	0.2006
533.00	0.1999
534.00	0.1988
535.00	0.1975
536.00	0.1970
537.00	0.1964
538.00	0.1958
539.00	0.1953
540.00	0.1946
541.00	0.1938
542.00	0.1932
543.00	0.1926
544.00	0.1920
545.00	0.1912
546.00	0.1906
547.00	0.1901
548.00	0.1895
549.00	0.1887
550.00	0.1882
551.00	0.1877
552.00	0.1870
553.00	0.1864
554.00	0.1856
555.00	0.1850
556.00	0.1843
557.00	0.1837
558.00	0.1831
559.00	0.1826
560.00	0.1820
561.00	0.1813
562.00	0.1808
563.00	0.1802
564.00	0.1797
565.00	0.1791
566.00	0.1784
567.00	0.1777
568.00	0.1768
569.00	0.1759
570.00	0.1753
571.00	0.1747
572.00	0.1744
573.00	0.1740
574.00	0.1734
575.00	0.1725
576.00	0.1715
577.00	0.1702
578.00	0.1691
579.00	0.1683
580.00	0.1676
581.00	0.1668
582.00	0.1660
583.00	0.1652
584.00	0.1643
585.00	0.1634
586.00	0.1627
587.00	0.1620
588.00	0.1612
589.00	0.1604
590.00	0.1595
591.00	0.1587
592.00	0.1577
593.00	0.1567
594.00	0.1557
595.00	0.1549
596.00	0.1539
597.00	0.1530
598.00	0.1521
599.00	0.1513
600.00	0.1504
601.00	0.1495
602.00	0.1486
603.00	0.1476
604.00	0.1467
605.00	0.1458
606.00	0.1450
607.00	0.1442
608.00	0.1434
609.00	0.1427
610.00	0.1421
611.00	0.1415
612.00	0.1408
613.00	0.1400
614.00	0.1392
615.00	0.1388
616.00	0.1383
617.00	0.1378
618.00	0.1373
619.00	0.1367
620.00	0.1355
621.00	0.1347
622.00	0.1339
623.00	0.1334
624.00	0.1330
625.00	0.1325
626.00	0.1320
627.00	0.1316
628.00	0.1310
629.00	0.1306
630.00	0.1303
631.00	0.1300
632.00	0.1295
633.00	0.1290
634.00	0.1286
635.00	0.1282
636.00	0.1277
637.00	0.1275
638.00	0.1274
639.00	0.1272
640.00	0.1268
641.00	0.1266
642.00	0.1264
643.00	0.1262
644.00	0.1258
645.00	0.1255
646.00	0.1254
647.00	0.1253
648.00	0.1252
649.00	0.1254
650.00	0.1256
651.00	0.1257
652.00	0.1259
653.00	0.1261
654.00	0.1260
655.00	0.1260
656.00	0.1259
657.00	0.1258
658.00	0.1256
659.00	0.1255
660.00	0.1253
661.00	0.1251
662.00	0.1250
663.00	0.1249
664.00	0.1248
665.00	0.1249
666.00	0.1248
667.00	0.1247
668.00	0.1247
669.00	0.1248
670.00	0.1256
671.00	0.1261
672.00	0.1266
673.00	0.1271
674.00	0.1274
675.00	0.1270
676.00	0.1272
677.00	0.1272
678.00	0.1270
679.00	0.1271
680.00	0.1272
681.00	0.1275
682.00	0.1278
683.00	0.1281
684.00	0.1283
685.00	0.1285
686.00	0.1284
687.00	0.1286
688.00	0.1287
689.00	0.1290
690.00	0.1287
691.00	0.1292
692.00	0.1293
693.00	0.1293
694.00	0.1293
695.00	0.1298
696.00	0.1296
697.00	0.1295
698.00	0.1295
699.00	0.1296
700.00	0.1296
701.00	0.1300
702.00	0.1301
703.00	0.1305
704.00	0.1306
705.00	0.1307
706.00	0.1309
707.00	0.1310
708.00	0.1314
709.00	0.1316
710.00	0.1318
711.00	0.1317
712.00	0.1320
713.00	0.1317
714.00	0.1320
715.00	0.1322
716.00	0.1324
717.00	0.1323
718.00	0.1324
719.00	0.1324
720.00	0.1325
721.00	0.1325
722.00	0.1327
723.00	0.1327
724.00	0.1319
725.00	0.1320
726.00	0.1311
727.00	0.1312
728.00	0.1312
729.00	0.1319
730.00	0.1317
731.00	0.1326
732.00	0.1328
733.00	0.1335
734.00	0.1337
735.00	0.1338
736.00	0.1340
737.00	0.1341
738.00	0.1340
739.00	0.1343
740.00	0.1346
741.00	0.1350
742.00	0.1351
743.00	0.1353
744.00	0.1353
745.00	0.1357
746.00	0.1360
747.00	0.1359
748.00	0.1365
749.00	0.1367
750.00	0.1369
751.00	0.1372
752.00	0.1378
753.00	0.1377
754.00	0.1380
755.00	0.1381
756.00	0.1382
757.00	0.1382
758.00	0.1384
759.00	0.1386
760.00	0.1387
761.00	0.1389
762.00	0.1391
763.00	0.1395
764.00	0.1400
765.00	0.1402
766.00	0.1405
767.00	0.1408
768.00	0.1408
769.00	0.1405
770.00	0.1404
771.00	0.1402
772.00	0.1400
773.00	0.1399
774.00	0.1398
775.00	0.1396
776.00	0.1396
777.00	0.1393
778.00	0.1390
779.00	0.1386
780.00	0.1380
781.00	0.1372
782.00	0.1365
783.00	0.1360
784.00	0.1358
785.00	0.1360
786.00	0.1360
787.00	0.1357
788.00	0.1355
789.00	0.1351
790.00	0.1346
791.00	0.1340
792.00	0.1334
793.00	0.1328
794.00	0.1321
795.00	0.1310
796.00	0.1300
797.00	0.1285
798.00	0.1272
799.00	0.1260
800.00	0.1250
801.00	0.1241
802.00	0.1238
803.00	0.1229
804.00	0.1218
805.00	0.1208
806.00	0.1198
807.00	0.1191
808.00	0.1187
809.00	0.1182
810.00	0.1180
811.00	0.1180
812.00	0.1179
813.00	0.1175
814.00	0.1174
815.00	0.1170
816.00	0.1164
817.00	0.1159
818.00	0.1156
819.00	0.1151
820.00	0.1149
821.00	0.1149
822.00	0.1149
823.00	0.1148
824.00	0.1149
825.00	0.1153
826.00	0.1153
827.00	0.1154
828.00	0.1155
829.00	0.1156
830.00	0.1154
831.00	0.1158
832.00	0.1157
833.00	0.1159
834.00	0.1159
835.00	0.1158
836.00	0.1157
837.00	0.1159
838.00	0.1158
839.00	0.1159
840.00	0.1161
841.00	0.1164
842.00	0.1166
843.00	0.1169
844.00	0.1172
845.00	0.1175
846.00	0.1177
847.00	0.1178
848.00	0.1180
849.00	0.1181
850.00	0.1183
851.00	0.1183
852.00	0.1185
853.00	0.1187
854.00	0.1188
855.00	0.1190
856.00	0.1191
857.00	0.1190
858.00	0.1188
859.00	0.1186
860.00	0.1184
861.00	0.1183
862.00	0.1182
863.00	0.1183
864.00	0.1182
865.00	0.1180
866.00	0.1179
867.00	0.1178
868.00	0.1178
869.00	0.1177
870.00	0.1177
871.00	0.1175
872.00	0.1175
873.00	0.1173
874.00	0.1172
875.00	0.1171
876.00	0.1170
877.00	0.1166
878.00	0.1163
879.00	0.1159
880.00	0.1156
881.00	0.1152
882.00	0.1147
883.00	0.1140
884.00	0.1135
885.00	0.1127
886.00	0.1119
887.00	0.1115
888.00	0.1108
889.00	0.1102
890.00	0.1097
891.00	0.1089
892.00	0.1081
893.00	0.1076
894.00	0.1068
895.00	0.1060
896.00	0.1055
897.00	0.1049
898.00	0.1043
899.00	0.1037
900.00	0.1031
901.00	0.1024
902.00	0.1017
903.00	0.1011
904.00	0.1006
905.00	0.1001
906.00	0.0995
907.00	0.0991
908.00	0.0985
909.00	0.0979
910.00	0.0972
911.00	0.0968
912.00	0.0959
913.00	0.0953
914.00	0.0946
915.00	0.0942
916.00	0.0936
917.00	0.0933
918.00	0.0928
919.00	0.0924
920.00	0.0919
921.00	0.0915
922.00	0.0908
923.00	0.0902
924.00	0.0894
925.00	0.0887
926.00	0.0882
927.00	0.0878
928.00	0.0874
929.00	0.0871
930.00	0.0866
931.00	0.0860
932.00	0.0856
933.00	0.0852
934.00	0.0847
935.00	0.0845
936.00	0.0843
937.00	0.0838
938.00	0.0833
939.00	0.0828
940.00	0.0821
941.00	0.0814
942.00	0.0808
943.00	0.0803
944.00	0.0798
945.00	0.0793
946.00	0.0787
947.00	0.0784
948.00	0.0779
949.00	0.0775
950.00	0.0770
951.00	0.0767
952.00	0.0764
953.00	0.0759
954.00	0.0754
955.00	0.0748
956.00	0.0742
957.00	0.0737
958.00	0.0735
959.00	0.0732
960.00	0.0730
961.00	0.0726
962.00	0.0720
963.00	0.0714
964.00	0.0710
965.00	0.0705
966.00	0.0702
967.00	0.0696
968.00	0.0692
969.00	0.0688
970.00	0.0685
971.00	0.0681
972.00	0.0677
973.00	0.0673
974.00	0.0668
975.00	0.0662
976.00	0.0657
977.00	0.0653
978.00	0.0648
979.00	0.0643
980.00	0.0640
981.00	0.0636
982.00	0.0634
983.00	0.0630
984.00	0.0628
985.00	0.0623
986.00	0.0621
987.00	0.0616
988.00	0.0612
989.00	0.0608
990.00	0.0603
991.00	0.0598
992.00	0.0595
993.00	0.0592
994.00	0.0588
995.00	0.0586
996.00	0.0582
997.00	0.0578
998.00	0.0575
999.00	0.0570
1000.00	0.0564
1001.00	0.0560
1002.00	0.0556
1003.00	0.0551
1004.00	0.0548
1005.00	0.0545
1006.00	0.0542
1007.00	0.0539
1008.00	0.0537
1009.00	0.0534
1010.00	0.0529
1011.00	0.0524
1012.00	0.0519
1013.00	0.0516
1014.00	0.0511
1015.00	0.0508
1016.00	0.0504
1017.00	0.0502
1018.00	0.0498
1019.00	0.0496
1020.00	0.0495
1021.00	0.0493
1022.00	0.0489
1023.00	0.0486
1024.00	0.0482
1025.00	0.0477
1026.00	0.0473
1027.00	0.0470
1028.00	0.0467
1029.00	0.0464
1030.00	0.0461
1031.00	0.0462
1032.00	0.0460
1033.00	0.0455
1034.00	0.0453
1035.00	0.0450
1036.00	0.0444
1037.00	0.0441
1038.00	0.0439
1039.00	0.0436
1040.00	0.0433
1041.00	0.0432
1042.00	0.0430
1043.00	0.0428
1044.00	0.0425
1045.00	0.0422
1046.00	0.0420
1047.00	0.0416
1048.00	0.0412
1049.00	0.0410
1050.00	0.0407
1051.00	0.0403
1052.00	0.0401
1053.00	0.0401
1054.00	0.0399
1055.00	0.0399
1056.00	0.0395
1057.00	0.0393
1058.00	0.0395
1059.00	0.0394
1060.00	0.0390
1061.00	0.0386
1062.00	0.0385
1063.00	0.0378
1064.00	0.0376
1065.00	0.0375
1066.00	0.0374
1067.00	0.0374
1068.00	0.0372
1069.00	0.0369
1070.00	0.0367
1071.00	0.0365
1072.00	0.0360
1073.00	0.0356
1074.00	0.0355
1075.00	0.0352
1076.00	0.0353
1077.00	0.0352
1078.00	0.0353
1079.00	0.0351
1080.00	0.0350
1081.00	0.0349
1082.00	0.0347
1083.00	0.0346
1084.00	0.0344
1085.00	0.0342
1086.00	0.0340
1087.00	0.0340
1088.00	0.0337
1089.00	0.0336
1090.00	0.0336
1091.00	0.0331
1092.00	0.0327
1093.00	0.0327
1094.00	0.0324
1095.00	0.0321
1096.00	0.0324
1097.00	0.0326
1098.00	0.0326
1099.00	0.0326
1100.00	0.0326
1101.00	0.0323
1102.00	0.0322
1103.00	0.0321
1104.00	0.0317
1105.00	0.0316
1106.00	0.0314
1107.00	0.0312
1108.00	0.0311
1109.00	0.0312
1110.00	0.0310
1111.00	0.0310
1112.00	0.0309
1113.00	0.0308
1114.00	0.0308
1115.00	0.0306
1116.00	0.0306
1117.00	0.0304
1118.00	0.0302
1119.00	0.0302
1120.00	0.0303
1121.00	0.0303
1122.00	0.0306
1123.00	0.0305
1124.00	0.0303
1125.00	0.0303
1126.00	0.0301
1127.00	0.0298
1128.00	0.0297
1129.00	0.0296
1130.00	0.0294
1131.00	0.0292
1132.00	0.0292
1133.00	0.0292
1134.00	0.0294
1135.00	0.0293
1136.00	0.0294
1137.00	0.0294
1138.00	0.0294
1139.00	0.0292
1140.00	0.0292
1141.00	0.0290
1142.00	0.0287
1143.00	0.0288
1144.00	0.0289
1145.00	0.0288
1146.00	0.0288
1147.00	0.0290
1148.00	0.0290
1149.00	0.0288
1150.00	0.0291
1151.00	0.0294
1152.00	0.0294
1153.00	0.0291
1154.00	0.0290
1155.00	0.0288
1156.00	0.0285
1157.00	0.0287
1158.00	0.0290
1159.00	0.0291
1160.00	0.0291
1161.00	0.0289
1162.00	0.0286
1163.00	0.0286
1164.00	0.0285
1165.00	0.0283
1166.00	0.0283
1167.00	0.0284
1168.00	0.0284
1169.00	0.0286
1170.00	0.0289
1171.00	0.0291
1172.00	0.0290
1173.00	0.0290
1174.00	0.0287
1175.00	0.0286
1176.00	0.0285
1177.00	0.0285
1178.00	0.0284
1179.00	0.0285
1180.00	0.0285
1181.00	0.0286
1182.00	0.0289
1183.00	0.0288
1184.00	0.0286
1185.00	0.0285
1186.00	0.0285
1187.00	0.0281
1188.00	0.0282
1189.00	0.0284
1190.00	0.0285
1191.00	0.0287
1192.00	0.0289
1193.00	0.0289
1194.00	0.0292
1195.00	0.0293
1196.00	0.0291
1197.00	0.0292
1198.00	0.0290
1199.00	0.0287
1200.00	0.0286
1201.00	0.0285
1202.00	0.0285
1203.00	0.0289
1204.00	0.0292
1205.00	0.0295
1206.00	0.0296
1207.00	0.0295
1208.00	0.0293
1209.00	0.0291
1210.00	0.0289
1211.00	0.0289
1212.00	0.0290
1213.00	0.0291
1214.00	0.0292
1215.00	0.0292
1216.00	0.0294
1217.00	0.0294
1218.00	0.0291
1219.00	0.0290
1220.00	0.0289
1221.00	0.0288
1222.00	0.0289
1223.00	0.0292
1224.00	0.0293
1225.00	0.0295
1226.00	0.0296
1227.00	0.0296
1228.00	0.0295
1229.00	0.0295
1230.00	0.0294
1231.00	0.0293
1232.00	0.0293
1233.00	0.0294
1234.00	0.0294
1235.00	0.0296
1236.00	0.0298
1237.00	0.0296
1238.00	0.0297
1239.00	0.0298
1240.00	0.0298
1241.00	0.0299
1242.00	0.0298
1243.00	0.0299
1244.00	0.0301
1245.00	0.0298
1246.00	0.0293
1247.00	0.0294
1248.00	0.0293
1249.00	0.0293
1250.00	0.0295
1251.00	0.0302
1252.00	0.0302
1253.00	0.0300
1254.00	0.0301
1255.00	0.0301
1256.00	0.0300
1257.00	0.0302
1258.00	0.0304
1259.00	0.0306
1260.00	0.0307
1261.00	0.0310
1262.00	0.0311
1263.00	0.0312
1264.00	0.0311
1265.00	0.0311
1266.00	0.0312
1267.00	0.0311
1268.00	0.0314
1269.00	0.0314
1270.00	0.0315
1271.00	0.0315
1272.00	0.0315
1273.00	0.0313
1274.00	0.0314
1275.00	0.0315
1276.00	0.0311
1277.00	0.0308
1278.00	0.0309
1279.00	0.0310
1280.00	0.0310
1281.00	0.0315
1282.00	0.0320
1283.00	0.0322
1284.00	0.0323
1285.00	0.0322
1286.00	0.0320
1287.00	0.0320
1288.00	0.0318
1289.00	0.0317
1290.00	0.0319
1291.00	0.0321
1292.00	0.0322
1293.00	0.0323
1294.00	0.0324
1295.00	0.0324
1296.00	0.0326
1297.00	0.0323
1298.00	0.0325
1299.00	0.0325
1300.00	0.0323
1301.00	0.0324
1302.00	0.0327
1303.00	0.0327
1304.00	0.0327
1305.00	0.0330
1306.00	0.0328
1307.00	0.0327
1308.00	0.0326
1309.00	0.0328
1310.00	0.0329
1311.00	0.0330
1312.00	0.0334
1313.00	0.0336
1314.00	0.0335
1315.00	0.0336
1316.00	0.0338
1317.00	0.0336
1318.00	0.0337
1319.00	0.0339
1320.00	0.0338
1321.00	0.0338
1322.00	0.0338
1323.00	0.0339
1324.00	0.0338
1325.00	0.0340
1326.00	0.0342
1327.00	0.0343
1328.00	0.0345
1329.00	0.0344
1330.00	0.0345
1331.00	0.0346
1332.00	0.0346
1333.00	0.0345
1334.00	0.0349
1335.00	0.0348
1336.00	0.0350
1337.00	0.0353
1338.00	0.0351
1339.00	0.0351
1340.00	0.0352
1341.00	0.0352
1342.00	0.0351
1343.00	0.0353
1344.00	0.0354
1345.00	0.0356
1346.00	0.0356
1347.00	0.0359
1348.00	0.0360
1349.00	0.0360
1350.00	0.0358
1351.00	0.0359
1352.00	0.0357
1353.00	0.0358
1354.00	0.0361
1355.00	0.0363
1356.00	0.0366
1357.00	0.0369
1358.00	0.0372
1359.00	0.0373
1360.00	0.0375
1361.00	0.0375
1362.00	0.0377
1363.00	0.0377
1364.00	0.0376
1365.00	0.0378
1366.00	0.0376
1367.00	0.0378
1368.00	0.0379
1369.00	0.0382
1370.00	0.0381
1371.00	0.0385
1372.00	0.0385
1373.00	0.0386
1374.00	0.0387
1375.00	0.0389
1376.00	0.0390
1377.00	0.0390
1378.00	0.0393
1379.00	0.0392
1380.00	0.0393
1381.00	0.0395
1382.00	0.0396
1383.00	0.0397
1384.00	0.0399
1385.00	0.0400
1386.00	0.0399
1387.00	0.0401
1388.00	0.0399
1389.00	0.0403
1390.00	0.0403
1391.00	0.0406
1392.00	0.0410
1393.00	0.0411
1394.00	0.0410
1395.00	0.0411
1396.00	0.0412
1397.00	0.0409
1398.00	0.0409
1399.00	0.0411
1400.00	0.0414
1401.00	0.0415
1402.00	0.0418
1403.00	0.0422
1404.00	0.0423
1405.00	0.0423
1406.00	0.0424
1407.00	0.0426
1408.00	0.0427
1409.00	0.0429
1410.00	0.0427
1411.00	0.0428
1412.00	0.0429
1413.00	0.0430
1414.00	0.0432
1415.00	0.0435
1416.00	0.0437
1417.00	0.0440
1418.00	0.0441
1419.00	0.0441
1420.00	0.0443
1421.00	0.0443
1422.00	0.0444
1423.00	0.0446
1424.00	0.0448
1425.00	0.0448
1426.00	0.0451
1427.00	0.0453
1428.00	0.0447
1429.00	0.0443
1430.00	0.0447
1431.00	0.0448
1432.00	0.0449
1433.00	0.0454
1434.00	0.0459
1435.00	0.0459
1436.00	0.0458
1437.00	0.0459
1438.00	0.0461
1439.00	0.0461
1440.00	0.0456
1441.00	0.0457
1442.00	0.0457
1443.00	0.0457
1444.00	0.0460
1445.00	0.0466
1446.00	0.0467
1447.00	0.0469
1448.00	0.0471
1449.00	0.0473
1450.00	0.0475
1451.00	0.0478
1452.00	0.0478
1453.00	0.0479
1454.00	0.0480
1455.00	0.0480
1456.00	0.0479
1457.00	0.0481
1458.00	0.0483
1459.00	0.0476
1460.00	0.0474
1461.00	0.0476
1462.00	0.0475
1463.00	0.0476
1464.00	0.0485
1465.00	0.0488
1466.00	0.0490
1467.00	0.0491
1468.00	0.0488
1469.00	0.0486
1470.00	0.0488
1471.00	0.0488
1472.00	0.0491
1473.00	0.0493
1474.00	0.0498
1475.00	0.0499
1476.00	0.0500
1477.00	0.0500
1478.00	0.0503
1479.00	0.0505
1480.00	0.0506
1481.00	0.0509
1482.00	0.0512
1483.00	0.0515
1484.00	0.0515
1485.00	0.0518
1486.00	0.0515
1487.00	0.0513
1488.00	0.0518
1489.00	0.0518
1490.00	0.0515
1491.00	0.0521
1492.00	0.0523
1493.00	0.0521
1494.00	0.0526
1495.00	0.0531
1496.00	0.0533
1497.00	0.0537
1498.00	0.0536
1499.00	0.0536
1500.00	0.0537
1501.00	0.0538
1502.00	0.0539
1503.00	0.0541
1504.00	0.0541
1505.00	0.0546
1506.00	0.0549
1507.00	0.0551
1508.00	0.0555
1509.00	0.0558
1510.00	0.0555
1511.00	0.0557
1512.00	0.0556
1513.00	0.0555
1514.00	0.0559
1515.00	0.0560
1516.00	0.0558
1517.00	0.0562
1518.00	0.0564
1519.00	0.0567
1520.00	0.0569
1521.00	0.0571
1522.00	0.0573
1523.00	0.0575
1524.00	0.0574
1525.00	0.0577
1526.00	0.0579
1527.00	0.0579
1528.00	0.0580
1529.00	0.0580
1530.00	0.0582
1531.00	0.0583
1532.00	0.0585
1533.00	0.0587
1534.00	0.0590
1535.00	0.0591
1536.00	0.0595
1537.00	0.0596
1538.00	0.0596
1539.00	0.0595
1540.00	0.0596
1541.00	0.0597
1542.00	0.0598
1543.00	0.0600
1544.00	0.0603
1545.00	0.0606
1546.00	0.0606
1547.00	0.0607
1548.00	0.0610
1549.00	0.0611
1550.00	0.0610
1551.00	0.0611
1552.00	0.0614
1553.00	0.0615
1554.00	0.0617
1555.00	0.0619
1556.00	0.0622
1557.00	0.0625
1558.00	0.0625
1559.00	0.0626
1560.00	0.0631
1561.00	0.0628
1562.00	0.0627
1563.00	0.0635
1564.00	0.0637
1565.00	0.0634
1566.00	0.0639
1567.00	0.0641
1568.00	0.0638
1569.00	0.0640
1570.00	0.0643
1571.00	0.0646
1572.00	0.0646
1573.00	0.0647
1574.00	0.0650
1575.00	0.0650
1576.00	0.0650
1577.00	0.0652
1578.00	0.0656
1579.00	0.0656
1580.00	0.0659
1581.00	0.0659
1582.00	0.0658
1583.00	0.0660
1584.00	0.0660
1585.00	0.0661
1586.00	0.0665
1587.00	0.0669
1588.00	0.0669
1589.00	0.0671
1590.00	0.0673
1591.00	0.0674
1592.00	0.0677
1593.00	0.0679
1594.00	0.0680
1595.00	0.0681
1596.00	0.0683
1597.00	0.0684
1598.00	0.0686
1599.00	0.0688
1600.00	0.0692
1601.00	0.0694
1602.00	0.0696
1603.00	0.0697
1604.00	0.0698
1605.00	0.0699
1606.00	0.0701
1607.00	0.0701
1608.00	0.0701
1609.00	0.0704
1610.00	0.0704
1611.00	0.0705
1612.00	0.0709
1613.00	0.0707
1614.00	0.0708
1615.00	0.0710
1616.00	0.0711
1617.00	0.0713
1618.00	0.0719
1619.00	0.0720
1620.00	0.0722
1621.00	0.0724
1622.00	0.0724
1623.00	0.0724
1624.00	0.0728
1625.00	0.0731
1626.00	0.0735
1627.00	0.0738
1628.00	0.0741
1629.00	0.0741
1630.00	0.0739
1631.00	0.0739
1632.00	0.0738
1633.00	0.0741
1634.00	0.0741
1635.00	0.0743
1636.00	0.0745
1637.00	0.0746
1638.00	0.0746
1639.00	0.0747
1640.00	0.0748
1641.00	0.0747
1642.00	0.0750
1643.00	0.0746
1644.00	0.0745
1645.00	0.0746
1646.00	0.0745
1647.00	0.0743
1648.00	0.0745
1649.00	0.0745
1650.00	0.0742
1651.00	0.0742
1652.00	0.0739
1653.00	0.0737
1654.00	0.0736
1655.00	0.0736
1656.00	0.0734
1657.00	0.0734
1658.00	0.0734
1659.00	0.0737
1660.00	0.0737
1661.00	0.0740
1662.00	0.0743
1663.00	0.0744
1664.00	0.0742
1665.00	0.0743
1666.00	0.0743
1667.00	0.0744
1668.00	0.0745
1669.00	0.0746
1670.00	0.0748
1671.00	0.0748
1672.00	0.0749
1673.00	0.0750
1674.00	0.0753
1675.00	0.0754
1676.00	0.0757
1677.00	0.0759
1678.00	0.0761
1679.00	0.0762
1680.00	0.0761
1681.00	0.0763
1682.00	0.0764
1683.00	0.0766
1684.00	0.0769
1685.00	0.0773
1686.00	0.0774
1687.00	0.0776
1688.00	0.0778
1689.00	0.0778
1690.00	0.0776
1691.00	0.0775
1692.00	0.0774
1693.00	0.0774
1694.00	0.0775
1695.00	0.0776
1696.00	0.0778
1697.00	0.0781
1698.00	0.0786
1699.00	0.0789
1700.00	0.0791
1701.00	0.0793
1702.00	0.0796
1703.00	0.0794
1704.00	0.0790
1705.00	0.0792
1706.00	0.0792
1707.00	0.0792
1708.00	0.0794
1709.00	0.0798
1710.00	0.0802
1711.00	0.0804
1712.00	0.0809
1713.00	0.0812
1714.00	0.0816
1715.00	0.0819
1716.00	0.0820
1717.00	0.0819
1718.00	0.0819
1719.00	0.0819
1720.00	0.0818
1721.00	0.0818
1722.00	0.0820
1723.00	0.0822
1724.00	0.0822
1725.00	0.0823
1726.00	0.0825
1727.00	0.0825
1728.00	0.0828
1729.00	0.0832
1730.00	0.0834
1731.00	0.0835
1732.00	0.0837
1733.00	0.0835
1734.00	0.0835
1735.00	0.0836
1736.00	0.0836
1737.00	0.0838
1738.00	0.0839
1739.00	0.0841
1740.00	0.0842
1741.00	0.0846
1742.00	0.0847
1743.00	0.0849
1744.00	0.0852
1745.00	0.0853
1746.00	0.0853
1747.00	0.0855
1748.00	0.0857
1749.00	0.0857
1750.00	0.0861
1751.00	0.0862
1752.00	0.0865
1753.00	0.0867
1754.00	0.0870
1755.00	0.0870
1756.00	0.0869
1757.00	0.0870
1758.00	0.0870
1759.00	0.0869
1760.00	0.0869
1761.00	0.0870
1762.00	0.0871
1763.00	0.0873
1764.00	0.0877
1765.00	0.0880
1766.00	0.0883
1767.00	0.0886
1768.00	0.0889
1769.00	0.0891
1770.00	0.0891
1771.00	0.0891
1772.00	0.0890
1773.00	0.0889
1774.00	0.0891
1775.00	0.0893
1776.00	0.0895
1777.00	0.0897
1778.00	0.0898
1779.00	0.0897
1780.00	0.0898
1781.00	0.0899
1782.00	0.0899
1783.00	0.0902
1784.00	0.0904
1785.00	0.0906
1786.00	0.0907
1787.00	0.0910
1788.00	0.0909
1789.00	0.0909
1790.00	0.0909
1791.00	0.0910
1792.00	0.0909
1793.00	0.0909
1794.00	0.0911
1795.00	0.0913
1796.00	0.0917
1797.00	0.0920
1798.00	0.0922
1799.00	0.0922
1800.00	0.0922
1801.00	0.0923
1802.00	0.0923
1803.00	0.0924
1804.00	0.0927
1805.00	0.0929
1806.00	0.0930
1807.00	0.0934
1808.00	0.0937
1809.00	0.0937
1810.00	0.0939
1811.00	0.0941
1812.00	0.0939
1813.00	0.0938
1814.00	0.0936
1815.00	0.0934
1816.00	0.0933
1817.00	0.0933
1818.00	0.0935
1819.00	0.0939
1820.00	0.0942
1821.00	0.0945
1822.00	0.0948
1823.00	0.0948
1824.00	0.0947
1825.00	0.0949
1826.00	0.0950
1827.00	0.0951
1828.00	0.0952
1829.00	0.0955
1830.00	0.0956
1831.00	0.0956
1832.00	0.0958
1833.00	0.0961
1834.00	0.0964
1835.00	0.0965
1836.00	0.0967
1837.00	0.0968
1838.00	0.0968
1839.00	0.0969
1840.00	0.0971
1841.00	0.0971
1842.00	0.0971
1843.00	0.0972
1844.00	0.0971
1845.00	0.0970
1846.00	0.0969
1847.00	0.0968
1848.00	0.0966
1849.00	0.0965
1850.00	0.0965
1851.00	0.0966
1852.00	0.0968
1853.00	0.0971
1854.00	0.0976
1855.00	0.0978
1856.00	0.0982
1857.00	0.0986
1858.00	0.0987
1859.00	0.0988
1860.00	0.0989
1861.00	0.0988
1862.00	0.0987
1863.00	0.0985
1864.00	0.0987
1865.00	0.0987
1866.00	0.0986
1867.00	0.0986
1868.00	0.0989
1869.00	0.0987
1870.00	0.0989
1871.00	0.0992
1872.00	0.0994
1873.00	0.0997
1874.00	0.1000
1875.00	0.1003
1876.00	0.1003
1877.00	0.1005
1878.00	0.1002
1879.00	0.1003
1880.00	0.1001
1881.00	0.1002
1882.00	0.1001
1883.00	0.1003
1884.00	0.1002
1885.00	0.1001
1886.00	0.1001
1887.00	0.1000
1888.00	0.1001
1889.00	0.1002
1890.00	0.1003
1891.00	0.1003
1892.00	0.1003
1893.00	0.1006
1894.00	0.1006
1895.00	0.1006
1896.00	0.1011
1897.00	0.1015
1898.00	0.1015
1899.00	0.1020
1900.00	0.1024
1901.00	0.1026
1902.00	0.1029
1903.00	0.1032
1904.00	0.1034
1905.00	0.1036
1906.00	0.1036
1907.00	0.1036
1908.00	0.1034
1909.00	0.1035
1910.00	0.1034
1911.00	0.1035
1912.00	0.1036
1913.00	0.1035
1914.00	0.1033
1915.00	0.1032
1916.00	0.1032
1917.00	0.1033
1918.00	0.1034
1919.00	0.1034
1920.00	0.1035
1921.00	0.1035
1922.00	0.1036
1923.00	0.1038
1924.00	0.1040
1925.00	0.1042
1926.00	0.1045
1927.00	0.1045
1928.00	0.1045
1929.00	0.1045
1930.00	0.1046
1931.00	0.1044
1932.00	0.1043
1933.00	0.1044
1934.00	0.1044
1935.00	0.1045
1936.00	0.1046
1937.00	0.1050
1938.00	0.1053
1939.00	0.1055
1940.00	0.1057
1941.00	0.1059
1942.00	0.1058
1943.00	0.1059
1944.00	0.1058
1945.00	0.1059
1946.00	0.1059
1947.00	0.1060
1948.00	0.1060
1949.00	0.1061
1950.00	0.1059
1951.00	0.1056
1952.00	0.1055
1953.00	0.1055
1954.00	0.1055
1955.00	0.1054
1956.00	0.1054
1957.00	0.1057
1958.00	0.1059
1959.00	0.1062
1960.00	0.1064
1961.00	0.1066
1962.00	0.1066
1963.00	0.1066
1964.00	0.1064
1965.00	0.1064
1966.00	0.1064
1967.00	0.1067
1968.00	0.1068
1969.00	0.1069
1970.00	0.1070
1971.00	0.1071
1972.00	0.1070
1973.00	0.1070
1974.00	0.1073
1975.00	0.1072
1976.00	0.1074
1977.00	0.1076
1978.00	0.1077
1979.00	0.1076
1980.00	0.1077
1981.00	0.1077
1982.00	0.1078
1983.00	0.1080
1984.00	0.1081
1985.00	0.1084
1986.00	0.1085
1987.00	0.1085
1988.00	0.1084
1989.00	0.1086
1990.00	0.1085
1991.00	0.1085
1992.00	0.1084
1993.00	0.1086
1994.00	0.1084
1995.00	0.1085
1996.00	0.1088
1997.00	0.1091
1998.00	0.1090
1999.00	0.1089
2000.00	0.1092
2001.00	0.1094
2002.00	0.1095
2003.00	0.1095
2004.00	0.1098
2005.00	0.1098
2006.00	0.1094
2007.00	0.1095
2008.00	0.1096
2009.00	0.1099
2010.00	0.1097
2011.00	0.1098
2012.00	0.1098
2013.00	0.1099
2014.00	0.1097
2015.00	0.1096
2016.00	0.1098
2017.00	0.1096
2018.00	0.1097
2019.00	0.1098
2020.00	0.1102
2021.00	0.1102
2022.00	0.1100
2023.00	0.1100
2024.00	0.1102
2025.00	0.1100
2026.00	0.1102
2027.00	0.1105
2028.00	0.1104
2029.00	0.1100
2030.00	0.1101
2031.00	0.1101
2032.00	0.1102
2033.00	0.1101
2034.00	0.1104
2035.00	0.1105
2036.00	0.1106
2037.00	0.1106
2038.00	0.1108
2039.00	0.1109
2040.00	0.1108
2041.00	0.1107
2042.00	0.1105
2043.00	0.1105
2044.00	0.1106
2045.00	0.1108
2046.00	0.1109
2047.00	0.1111
2048.00	0.1108
2049.00	0.1110
2050.00	0.1109
2051.00	0.1112
2052.00	0.1117
2053.00	0.1122
2054.00	0.1122
2055.00	0.1124
2056.00	0.1124
2057.00	0.1123
2058.00	0.1124
2059.00	0.1125
2060.00	0.1125
2061.00	0.1125
2062.00	0.1122
2063.00	0.1121
2064.00	0.1120
2065.00	0.1119
2066.00	0.1120
2067.00	0.1124
2068.00	0.1126
2069.00	0.1125
2070.00	0.1129
2071.00	0.1130
2072.00	0.1130
2073.00	0.1128
2074.00	0.1128
2075.00	0.1124
2076.00	0.1123
2077.00	0.1123
2078.00	0.1126
2079.00	0.1125
2080.00	0.1124
2081.00	0.1123
2082.00	0.1125
2083.00	0.1127
2084.00	0.1128
2085.00	0.1133
2086.00	0.1139
2087.00	0.1137
2088.00	0.1135
2089.00	0.1135
2090.00	0.1139
2091.00	0.1138
2092.00	0.1139
2093.00	0.1139
2094.00	0.1141
2095.00	0.1135
2096.00	0.1132
2097.00	0.1131
2098.00	0.1134
2099.00	0.1133
2100.00	0.1137
2101.00	0.1138
2102.00	0.1139
2103.00	0.1139
2104.00	0.1140
2105.00	0.1136
2106.00	0.1136
2107.00	0.1136
2108.00	0.1134
2109.00	0.1134
2110.00	0.1137
2111.00	0.1138
2112.00	0.1139
2113.00	0.1138
2114.00	0.1139
2115.00	0.1134
2116.00	0.1132
2117.00	0.1130
2118.00	0.1133
2119.00	0.1133
2120.00	0.1136
2121.00	0.1138
2122.00	0.1140
2123.00	0.1140
2124.00	0.1142
2125.00	0.1145
2126.00	0.1149
2127.00	0.1150
2128.00	0.1151
2129.00	0.1147
2130.00	0.1146
2131.00	0.1142
2132.00	0.1141
2133.00	0.1142
2134.00	0.1146
2135.00	0.1148
2136.00	0.1148
2137.00	0.1148
2138.00	0.1147
2139.00	0.1146
2140.00	0.1146
2141.00	0.1148
2142.00	0.1149
2143.00	0.1151
2144.00	0.1152
2145.00	0.1152
2146.00	0.1153
2147.00	0.1152
2148.00	0.1151
2149.00	0.1151
2150.00	0.1146
2151.00	0.1143
2152.00	0.1144
2153.00	0.1143
2154.00	0.1141
2155.00	0.1145
2156.00	0.1146
2157.00	0.1144
2158.00	0.1146
2159.00	0.1150
2160.00	0.1148
2161.00	0.1147
2162.00	0.1145
2163.00	0.1147
2164.00	0.1144
2165.00	0.1147
2166.00	0.1151
2167.00	0.1156
2168.00	0.1156
2169.00	0.1157
2170.00	0.1155
2171.00	0.1156
2172.00	0.1158
2173.00	0.1158
2174.00	0.1159
2175.00	0.1157
2176.00	0.1153
2177.00	0.1149
2178.00	0.1149
2179.00	0.1148
2180.00	0.1151
2181.00	0.1156
2182.00	0.1155
2183.00	0.1153
2184.00	0.1157
2185.00	0.1154
2186.00	0.1151
2187.00	0.1152
2188.00	0.1153
2189.00	0.1155
2190.00	0.1154
2191.00	0.1155
2192.00	0.1155
2193.00	0.1154
2194.00	0.1147
2195.00	0.1146
2196.00	0.1143
2197.00	0.1144
2198.00	0.1145
2199.00	0.1148
2200.00	0.1149
2201.00	0.1150
2202.00	0.1151
2203.00	0.1149
2204.00	0.1147
2205.00	0.1147
2206.00	0.1148
2207.00	0.1144
2208.00	0.1145
2209.00	0.1145
2210.00	0.1146
2211.00	0.1143
2212.00	0.1144
2213.00	0.1141
2214.00	0.1139
2215.00	0.1138
2216.00	0.1141
2217.00	0.1141
2218.00	0.1143
2219.00	0.1145
2220.00	0.1146
2221.00	0.1140
2222.00	0.1142
2223.00	0.1139
2224.00	0.1141
2225.00	0.1140
2226.00	0.1141
2227.00	0.1137
2228.00	0.1140
2229.00	0.1136
2230.00	0.1133
2231.00	0.1136
2232.00	0.1138
2233.00	0.1138
2234.00	0.1140
2235.00	0.1147
2236.00	0.1145
2237.00	0.1141
2238.00	0.1140
2239.00	0.1144
2240.00	0.1142
2241.00	0.1146
2242.00	0.1150
2243.00	0.1156
2244.00	0.1155
2245.00	0.1156
2246.00	0.1155
2247.00	0.1154
2248.00	0.1150
2249.00	0.1148
2250.00	0.1145
2251.00	0.1143
2252.00	0.1143
2253.00	0.1142
2254.00	0.1144
2255.00	0.1145
2256.00	0.1147
2257.00	0.1151
2258.00	0.1152
2259.00	0.1152
2260.00	0.1156
2261.00	0.1155
2262.00	0.1152
2263.00	0.1152
2264.00	0.1151
2265.00	0.1151
2266.00	0.1153
2267.00	0.1151
2268.00	0.1154
2269.00	0.1156
2270.00	0.1155
2271.00	0.1155
2272.00	0.1156
2273.00	0.1152
2274.00	0.1152
2275.00	0.1153
2276.00	0.1152
2277.00	0.1153
2278.00	0.1153
2279.00	0.1153
2280.00	0.1152
2281.00	0.1151
2282.00	0.1147
2283.00	0.1148
2284.00	0.1146
2285.00	0.1145
2286.00	0.1146
2287.00	0.1149
2288.00	0.1150
2289.00	0.1153
2290.00	0.1154
2291.00	0.1152
2292.00	0.1155
2293.00	0.1153
2294.00	0.1152
2295.00	0.1154
2296.00	0.1156
2297.00	0.1153
2298.00	0.1154
2299.00	0.1154
2300.00	0.1153
2301.00	0.1155
2302.00	0.1155
2303.00	0.1156
2304.00	0.1155
2305.00	0.1153
2306.00	0.1150
2307.00	0.1151
2308.00	0.1151
2309.00	0.1153
2310.00	0.1154
2311.00	0.1157
2312.00	0.1159
2313.00	0.1158
2314.00	0.1156
2315.00	0.1157
2316.00	0.1153
2317.00	0.1149
2318.00	0.1149
2319.00	0.1148
2320.00	0.1148
2321.00	0.1150
2322.00	0.1151
2323.00	0.1154
2324.00	0.1157
2325.00	0.1157
2326.00	0.1157
2327.00	0.1155
2328.00	0.1151
2329.00	0.1152
2330.00	0.1151
2331.00	0.1151
2332.00	0.1156
2333.00	0.1159
2334.00	0.1159
2335.00	0.1159
2336.00	0.1158
2337.00	0.1157
2338.00	0.1157
2339.00	0.1155
2340.00	0.1152
2341.00	0.1152
2342.00	0.1151
2343.00	0.1148
2344.00	0.1148
2345.00	0.1150
2346.00	0.1150
2347.00	0.1148
2348.00	0.1150
2349.00	0.1152
2350.00	0.1151
2351.00	0.1152
2352.00	0.1156
2353.00	0.1156
2354.00	0.1155
2355.00	0.1158
2356.00	0.1156
2357.00	0.1155
2358.00	0.1158
2359.00	0.1157
2360.00	0.1154
2361.00	0.1158
2362.00	0.1156
2363.00	0.1155
2364.00	0.1151
2365.00	0.1152
2366.00	0.1151
2367.00	0.1151
2368.00	0.1149
2369.00	0.1155
2370.00	0.1156
2371.00	0.1155
2372.00	0.1155
2373.00	0.1155
2374.00	0.1149
2375.00	0.1150
2376.00	0.1150
2377.00	0.1150
2378.00	0.1152
2379.00	0.1155
2380.00	0.1155
2381.00	0.1152
2382.00	0.1151
2383.00	0.1149
2384.00	0.1148
2385.00	0.1149
2386.00	0.1153
2387.00	0.1155
2388.00	0.1156
2389.00	0.1153
2390.00	0.1152
2391.00	0.1150
2392.00	0.1147
2393.00	0.1149
2394.00	0.1151
2395.00	0.1150
2396.00	0.1149
2397.00	0.1151
2398.00	0.1150
2399.00	0.1154
2400.00	0.1154
2401.00	0.1153
2402.00	0.1151
2403.00	0.1150
2404.00	0.1143
2405.00	0.1142
2406.00	0.1145
2407.00	0.1144
2408.00	0.1143
2409.00	0.1145
2410.00	0.1146
2411.00	0.1147
2412.00	0.1145
2413.00	0.1147
2414.00	0.1147
2415.00	0.1148
2416.00	0.1147
2417.00	0.1151
2418.00	0.1146
2419.00	0.1148
2420.00	0.1143
2421.00	0.1138
2422.00	0.1138
2423.00	0.1139
2424.00	0.1138
2425.00	0.1139
2426.00	0.1142
2427.00	0.1140
2428.00	0.1142
2429.00	0.1140
2430.00	0.1142
2431.00	0.1142
2432.00	0.1141
2433.00	0.1136
2434.00	0.1139
2435.00	0.1140
2436.00	0.1140
2437.00	0.1142
2438.00	0.1148
2439.00	0.1148
2440.00	0.1147
2441.00	0.1148
2442.00	0.1143
2443.00	0.1141
2444.00	0.1141
2445.00	0.1134
2446.00	0.1133
2447.00	0.1135
2448.00	0.1133
2449.00	0.1129
2450.00	0.1134
2451.00	0.1137
2452.00	0.1140
2453.00	0.1143
2454.00	0.1145
2455.00	0.1146
2456.00	0.1137
2457.00	0.1133
2458.00	0.1132
2459.00	0.1130
2460.00	0.1131
2461.00	0.1136
2462.00	0.1137
2463.00	0.1136
2464.00	0.1136
2465.00	0.1132
2466.00	0.1134
2467.00	0.1130
2468.00	0.1125
2469.00	0.1129
2470.00	0.1130
2471.00	0.1127
2472.00	0.1125
2473.00	0.1128
2474.00	0.1124
2475.00	0.1127
2476.00	0.1131
2477.00	0.1137
2478.00	0.1135
2479.00	0.1134
2480.00	0.1134
2481.00	0.1128
2482.00	0.1120
2483.00	0.1120
2484.00	0.1121
2485.00	0.1116
2486.00	0.1120
2487.00	0.1126
2488.00	0.1130
2489.00	0.1128
2490.00	0.1132
2491.00	0.1128
2492.00	0.1130
2493.00	0.1123
2494.00	0.1120
2495.00	0.1116
2496.00	0.1120
2497.00	0.1116
2498.00	0.1116
2499.00	0.1119
2500.00	0.1120
2501.00	0.1122
2502.00	0.1120
2503.00	0.1121
2504.00	0.1122
2505.00	0.1122
2506.00	0.1125
2507.00	0.1122
2508.00	0.1122
2509.00	0.1123
2510.00	0.1123
2511.00	0.1125
2512.00	0.1126
2513.00	0.1125
2514.00	0.1127
2515.00	0.1125
2516.00	0.1125
2517.00	0.1124
2518.00	0.1125
2519.00	0.1125
2520.00	0.1123
2521.00	0.1122
2522.00	0.1123
2523.00	0.1121
2524.00	0.1120
2525.00	0.1116
2526.00	0.1115
2527.00	0.1112
2528.00	0.1112
2529.00	0.1111
2530.00	0.1110
2531.00	0.1110
2532.00	0.1110
2533.00	0.1110
2534.00	0.1113
2535.00	0.1111
2536.00	0.1113
2537.00	0.1113
2538.00	0.1113
2539.00	0.1114
2540.00	0.1114
2541.00	0.1113
2542.00	0.1114
2543.00	0.1111
2544.00	0.1110
2545.00	0.1107
2546.00	0.1103
2547.00	0.1101
2548.00	0.1100
2549.00	0.1099
2550.00	0.1096
2551.00	0.1094
2552.00	0.1093
2553.00	0.1093
2554.00	0.1088
2555.00	0.1086
2556.00	0.1085
2557.00	0.1086
2558.00	0.1087
2559.00	0.1087
2560.00	0.1089
2561.00	0.1094
2562.00	0.1099
2563.00	0.1099
2564.00	0.1101
2565.00	0.1103
2566.00	0.1106
2567.00	0.1106
2568.00	0.1104
2569.00	0.1100
2570.00	0.1101
2571.00	0.1099
2572.00	0.1098
2573.00	0.1103
2574.00	0.1101
2575.00	0.1100
2576.00	0.1104
2577.00	0.1101
2578.00	0.1103
2579.00	0.1102
2580.00	0.1093
2581.00	0.1095
2582.00	0.1096
2583.00	0.1090
2584.00	0.1091
2585.00	0.1082
2586.00	0.1080
2587.00	0.1083
2588.00	0.1080
2589.00	0.1082
2590.00	0.1085
2591.00	0.1092
2592.00	0.1098
2593.00	0.1100
2594.00	0.1095
2595.00	0.1100
2596.00	0.1094
2597.00	0.1089
2598.00	0.1085
2599.00	0.1089
2600.00	0.1087
2601.00	0.1082
2602.00	0.1077
2603.00	0.1077
2604.00	0.1083
2605.00	0.1076
2606.00	0.1069
2607.00	0.1070
2608.00	0.1077
2609.00	0.1075
2610.00	0.1077
2611.00	0.1072
2612.00	0.1073
2613.00	0.1079
2614.00	0.1080
2615.00	0.1083
2616.00	0.1087
2617.00	0.1086
2618.00	0.1088
2619.00	0.1088
2620.00	0.1082
2621.00	0.1078
2622.00	0.1075
2623.00	0.1074
2624.00	0.1072
2625.00	0.1076
2626.00	0.1082
2627.00	0.1084
2628.00	0.1086
2629.00	0.1084
2630.00	0.1084
2631.00	0.1086
2632.00	0.1082
2633.00	0.1076
2634.00	0.1075
2635.00	0.1075
2636.00	0.1074
2637.00	0.1073
2638.00	0.1071
2639.00	0.1072
2640.00	0.1073
2641.00	0.1075
2642.00	0.1069
2643.00	0.1068
2644.00	0.1067
2645.00	0.1067
2646.00	0.1064
2647.00	0.1064
2648.00	0.1060
2649.00	0.1062
2650.00	0.1060
2651.00	0.1059
2652.00	0.1057
2653.00	0.1057
2654.00	0.1056
2655.00	0.1055
2656.00	0.1049
2657.00	0.1048
2658.00	0.1047
2659.00	0.1043
2660.00	0.1042
2661.00	0.1044
2662.00	0.1044
2663.00	0.1050
2664.00	0.1046
2665.00	0.1054
2666.00	0.1063
2667.00	0.1066
2668.00	0.1068
2669.00	0.1070
2670.00	0.1068
2671.00	0.1076
2672.00	0.1070
2673.00	0.1070
2674.00	0.1070
2675.00	0.1067
2676.00	0.1070
2677.00	0.1077
2678.00	0.1075
2679.00	0.1078
2680.00	0.1074
2681.00	0.1070
2682.00	0.1067
2683.00	0.1067
2684.00	0.1056
2685.00	0.1056
2686.00	0.1047
2687.00	0.1041
2688.00	0.1044
2689.00	0.1042
2690.00	0.1049
2691.00	0.1065
2692.00	0.1065
2693.00	0.1080
2694.00	0.1083
2695.00	0.1103
2696.00	0.1136
2697.00	0.1138
2698.00	0.1166
2699.00	0.1207
2700.00	0.1250
2701.00	0.1275
2702.00	0.1306
2703.00	0.1345
2704.00	0.1376
2705.00	0.1396
2706.00	0.1438
2707.00	0.1467
2708.00	0.1493
2709.00	0.1513
2710.00	0.1546
2711.00	0.1565
2712.00	0.1594
2713.00	0.1605
2714.00	0.1619
2715.00	0.1637
2716.00	0.1668
2717.00	0.1678
2718.00	0.1684
2719.00	0.1706
2720.00	0.1717
2721.00	0.1713
2722.00	0.1725
2723.00	0.1734
2724.00	0.1738
2725.00	0.1735
2726.00	0.1728
2727.00	0.1709
2728.00	0.1692
2729.00	0.1696
2730.00	0.1660
2731.00	0.1644
2732.00	0.1631
2733.00	0.1602
2734.00	0.1577
2735.00	0.1554
2736.00	0.1529
2737.00	0.1509
2738.00	0.1483
2739.00	0.1453
2740.00	0.1416
2741.00	0.1385
2742.00	0.1354
2743.00	0.1322
2744.00	0.1305
2745.00	0.1266
2746.00	0.1238
2747.00	0.1234
2748.00	0.1215
2749.00	0.1195
2750.00	0.1183
2751.00	0.1164
2752.00	0.1151
2753.00	0.1138
2754.00	0.1128
2755.00	0.1105
2756.00	0.1094
2757.00	0.1075
2758.00	0.1056
2759.00	0.1031
2760.00	0.1015
2761.00	0.1003
2762.00	0.0979
2763.00	0.0968
2764.00	0.0946
2765.00	0.0926
2766.00	0.0920
2767.00	0.0906
2768.00	0.0913
2769.00	0.0892
2770.00	0.0890
2771.00	0.0879
2772.00	0.0872
2773.00	0.0863
2774.00	0.0862
2775.00	0.0865
2776.00	0.0862
2777.00	0.0855
2778.00	0.0851
2779.00	0.0840
2780.00	0.0837
2781.00	0.0829
2782.00	0.0834
2783.00	0.0831
2784.00	0.0836
2785.00	0.0833
2786.00	0.0828
2787.00	0.0828
2788.00	0.0828
2789.00	0.0829
2790.00	0.0828
2791.00	0.0830
2792.00	0.0828
2793.00	0.0827
2794.00	0.0826
2795.00	0.0828
2796.00	0.0829
2797.00	0.0824
2798.00	0.0824
2799.00	0.0820
2800.00	0.0820
2801.00	0.0822
2802.00	0.0823
2803.00	0.0827
2804.00	0.0828
2805.00	0.0830
2806.00	0.0831
2807.00	0.0831
2808.00	0.0834
2809.00	0.0838
2810.00	0.0844
2811.00	0.0848
2812.00	0.0849
2813.00	0.0851
2814.00	0.0853
2815.00	0.0853
2816.00	0.0854
2817.00	0.0855
2818.00	0.0856
2819.00	0.0861
2820.00	0.0863
2821.00	0.0865
2822.00	0.0867
2823.00	0.0872
2824.00	0.0874
2825.00	0.0877
2826.00	0.0879
2827.00	0.0881
2828.00	0.0884
2829.00	0.0888
2830.00	0.0888
2831.00	0.0888
2832.00	0.0893
2833.00	0.0895
2834.00	0.0896
2835.00	0.0897
2836.00	0.0899
2837.00	0.0901
2838.00	0.0904
2839.00	0.0906
2840.00	0.0907
2841.00	0.0911
2842.00	0.0916
2843.00	0.0915
2844.00	0.0918
2845.00	0.0921
2846.00	0.0924
2847.00	0.0924
2848.00	0.0925
2849.00	0.0928
2850.00	0.0929
2851.00	0.0932
2852.00	0.0932
2853.00	0.0932
2854.00	0.0934
2855.00	0.0935
2856.00	0.0935
2857.00	0.0936
2858.00	0.0938
2859.00	0.0939
2860.00	0.0940
2861.00	0.0942
2862.00	0.0944
2863.00	0.0945
2864.00	0.0944
2865.00	0.0944
2866.00	0.0946
2867.00	0.0947
2868.00	0.0947
2869.00	0.0948
2870.00	0.0949
2871.00	0.0951
2872.00	0.0950
2873.00	0.0950
2874.00	0.0952
2875.00	0.0953
2876.00	0.0954
2877.00	0.0952
2878.00	0.0953
2879.00	0.0954
2880.00	0.0953
2881.00	0.0954
2882.00	0.0954
2883.00	0.0956
2884.00	0.0956
2885.00	0.0957
2886.00	0.0958
2887.00	0.0959
2888.00	0.0960
2889.00	0.0962
2890.00	0.0962
2891.00	0.0965
2892.00	0.0965
2893.00	0.0963
2894.00	0.0962
2895.00	0.0962
2896.00	0.0961
2897.00	0.0962
2898.00	0.0963
2899.00	0.0963
2900.00	0.0964
2901.00	0.0964
2902.00	0.0964
2903.00	0.0964
2904.00	0.0965
2905.00	0.0965
2906.00	0.0964
2907.00	0.0964
2908.00	0.0964
2909.00	0.0963
2910.00	0.0963
2911.00	0.0962
2912.00	0.0963
2913.00	0.0962
2914.00	0.0964
2915.00	0.0960
2916.00	0.0961
2917.00	0.0963
2918.00	0.0962
2919.00	0.0961
2920.00	0.0960
2921.00	0.0960
2922.00	0.0960
2923.00	0.0959
2924.00	0.0957
2925.00	0.0956
2926.00	0.0960
2927.00	0.0961
2928.00	0.0962
2929.00	0.0963
2930.00	0.0963
2931.00	0.0963
2932.00	0.0965
2933.00	0.0966
2934.00	0.0967
2935.00	0.0967
2936.00	0.0966
2937.00	0.0965
2938.00	0.0965
2939.00	0.0964
2940.00	0.0966
2941.00	0.0968
2942.00	0.0969
2943.00	0.0969
2944.00	0.0969
2945.00	0.0968
2946.00	0.0968
2947.00	0.0968
2948.00	0.0969
2949.00	0.0969
2950.00	0.0968
2951.00	0.0967
2952.00	0.0965
2953.00	0.0966
2954.00	0.0963
2955.00	0.0962
2956.00	0.0960
2957.00	0.0961
2958.00	0.0961
2959.00	0.0962
2960.00	0.0960
2961.00	0.0958
2962.00	0.0960
2963.00	0.0960
2964.00	0.0960
2965.00	0.0961
2966.00	0.0963
2967.00	0.0965
2968.00	0.0966
2969.00	0.0966
2970.00	0.0966
2971.00	0.0968
2972.00	0.0971
2973.00	0.0971
2974.00	0.0973
2975.00	0.0972
2976.00	0.0971
2977.00	0.0972
2978.00	0.0970
2979.00	0.0970
2980.00	0.0971
2981.00	0.0971
2982.00	0.0971
2983.00	0.0973
2984.00	0.0971
2985.00	0.0968
2986.00	0.0968
2987.00	0.0970
2988.00	0.0967
2989.00	0.0969
2990.00	0.0971
2991.00	0.0971
2992.00	0.0971
2993.00	0.0971
2994.00	0.0967
2995.00	0.0967
2996.00	0.0978
2997.00	0.0987
2998.00	0.0994
2999.00	0.1006
3000.00	0.1015
3001.00	0.1020
3002.00	0.1027
3003.00	0.1033
3004.00	0.1037
3005.00	0.1043
3006.00	0.1048
3007.00	0.1054
3008.00	0.1059
3009.00	0.1065
3010.00	0.1064
3011.00	0.1064
3012.00	0.1065
3013.00	0.1063
3014.00	0.1063
3015.00	0.1062
3016.00	0.1061
3017.00	0.1061
3018.00	0.1060
3019.00	0.1060
3020.00	0.1058
3021.00	0.1059
3022.00	0.1057
3023.00	0.1057
3024.00	0.1056
3025.00	0.1056
3026.00	0.1056
3027.00	0.1057
3028.00	0.1056
3029.00	0.1054
3030.00	0.1054
3031.00	0.1054
3032.00	0.1053
3033.00	0.1054
3034.00	0.1052
3035.00	0.1052
3036.00	0.1052
3037.00	0.1052
3038.00	0.1050
3039.00	0.1051
3040.00	0.1052
3041.00	0.1051
3042.00	0.1049
3043.00	0.1048
3044.00	0.1048
3045.00	0.1047
3046.00	0.1047
3047.00	0.1048
3048.00	0.1047
3049.00	0.1048
3050.00	0.1050
3051.00	0.1050
3052.00	0.1051
3053.00	0.1051
3054.00	0.1050
3055.00	0.1051
3056.00	0.1050
3057.00	0.1048
3058.00	0.1050
3059.00	0.1052
3060.00	0.1055
3061.00	0.1055
3062.00	0.1055
3063.00	0.1054
3064.00	0.1053
3065.00	0.1054
3066.00	0.1055
3067.00	0.1054
3068.00	0.1056
3069.00	0.1054
3070.00	0.1055
3071.00	0.1055
3072.00	0.1057
3073.00	0.1058
3074.00	0.1059
3075.00	0.1058
3076.00	0.1056
3077.00	0.1055
3078.00	0.1054
3079.00	0.1053
3080.00	0.1053
3081.00	0.1053
3082.00	0.1053
3083.00	0.1052
3084.00	0.1051
3085.00	0.1051
3086.00	0.1052
3087.00	0.1050
3088.00	0.1050
3089.00	0.1049
3090.00	0.1047
3091.00	0.1046
3092.00	0.1046
3093.00	0.1047
3094.00	0.1046
3095.00	0.1045
3096.00	0.1046
3097.00	0.1044
3098.00	0.1042
3099.00	0.1042
3100.00	0.1041
3101.00	0.1041
3102.00	0.1039
3103.00	0.1040
3104.00	0.1040
3105.00	0.1039
3106.00	0.1038
3107.00	0.1039
3108.00	0.1038
3109.00	0.1037
3110.00	0.1036
3111.00	0.1033
3112.00	0.1034
3113.00	0.1033
3114.00	0.1034
3115.00	0.1035
3116.00	0.1033
3117.00	0.1031
3118.00	0.1029
3119.00	0.1026
3120.00	0.1024
3121.00	0.1022
3122.00	0.1022
3123.00	0.1022
3124.00	0.1020
3125.00	0.1020
3126.00	0.1022
3127.00	0.1021
3128.00	0.1023
3129.00	0.1022
3130.00	0.1022
3131.00	0.1021
3132.00	0.1021
3133.00	0.1023
3134.00	0.1025
3135.00	0.1023
3136.00	0.1025
3137.00	0.1025
3138.00	0.1024
3139.00	0.1022
3140.00	0.1021
3141.00	0.1023
3142.00	0.1021
3143.00	0.1018
3144.00	0.1017
3145.00	0.1017
3146.00	0.1020
3147.00	0.1017
3148.00	0.1016
3149.00	0.1015
3150.00	0.1014
3151.00	0.1012
3152.00	0.1008
3153.00	0.1007
3154.00	0.1006
3155.00	0.1004
3156.00	0.1001
3157.00	0.0999
3158.00	0.0999
3159.00	0.1001
3160.00	0.1001
3161.00	0.1001
3162.00	0.1000
3163.00	0.0997
3164.00	0.1000
3165.00	0.0999
3166.00	0.0998
3167.00	0.0997
3168.00	0.0996
3169.00	0.1001
3170.00	0.1001
3171.00	0.1004
3172.00	0.1009
3173.00	0.1013
3174.00	0.1013
3175.00	0.1011
3176.00	0.1011
3177.00	0.1013
3178.00	0.1011
3179.00	0.1008
3180.00	0.1010
3181.00	0.1011
3182.00	0.1014
3183.00	0.1016
3184.00	0.1016
3185.00	0.1021
3186.00	0.1024
3187.00	0.1028
3188.00	0.1023
3189.00	0.1024
3190.00	0.1023
3191.00	0.1023
3192.00	0.1018
3193.00	0.1015
3194.00	0.1014
3195.00	0.1019
3196.00	0.1020
3197.00	0.1019
3198.00	0.1020
3199.00	0.1018
3200.00	0.1013
3201.00	0.1012
3202.00	0.1003
3203.00	0.1005
3204.00	0.1002
3205.00	0.1000
3206.00	0.0991
3207.00	0.0983
3208.00	0.0984
3209.00	0.0993
3210.00	0.0991
3211.00	0.0986
3212.00	0.0986
3213.00	0.0983
3214.00	0.0980
3215.00	0.0974
3216.00	0.0976
3217.00	0.0984
3218.00	0.0988
3219.00	0.1000
3220.00	0.0999
3221.00	0.0991
3222.00	0.0991
3223.00	0.0992
3224.00	0.0996
3225.00	0.1000
3226.00	0.1007
3227.00	0.1011
3228.00	0.1011
3229.00	0.1011
3230.00	0.1009
3231.00	0.1010
3232.00	0.1003
3233.00	0.1009
3234.00	0.1006
3235.00	0.1005
3236.00	0.0990
3237.00	0.0990
3238.00	0.0990
3239.00	0.0996
3240.00	0.0990
3241.00	0.0992
3242.00	0.0990
3243.00	0.0984
3244.00	0.0988
3245.00	0.0982
3246.00	0.0974
3247.00	0.0969
3248.00	0.0973
3249.00	0.0979
3250.00	0.0974
3251.00	0.0972
3252.00	0.0969
3253.00	0.0966
3254.00	0.0964
3255.00	0.0963
3256.00	0.0957
3257.00	0.0963
3258.00	0.0952
3259.00	0.0956
3260.00	0.0941
3261.00	0.0939
3262.00	0.0941
3263.00	0.0945
3264.00	0.0963
3265.00	0.0966
3266.00	0.0966
3267.00	0.0964
3268.00	0.0942
3269.00	0.0934
3270.00	0.0921
3271.00	0.0912
3272.00	0.0901
3273.00	0.0900
3274.00	0.0898
3275.00	0.0913
3276.00	0.0915
3277.00	0.0913
3278.00	0.0923
3279.00	0.0929
3280.00	0.0924
3281.00	0.0917
3282.00	0.0915
3283.00	0.0916
3284.00	0.0892
3285.00	0.0932
3286.00	0.0956
3287.00	0.0979
3288.00	0.0975
3289.00	0.1010
3290.00	0.1016
3291.00	0.1008
3292.00	0.1034
3293.00	0.1057
3294.00	0.1101
3295.00	0.1115
3296.00	0.1146
3297.00	0.1183
3298.00	0.1213
3299.00	0.1238
3300.00	0.1270
