"20-30mM-1_Xylene20mM - RawData"
"Wavelength nm."	"Abs."
300.00	0.1017
301.00	0.1026
302.00	0.1038
303.00	0.1051
304.00	0.1060
305.00	0.1066
306.00	0.1078
307.00	0.1091
308.00	0.1107
309.00	0.1124
310.00	0.1134
311.00	0.1144
312.00	0.1158
313.00	0.1171
314.00	0.1186
315.00	0.1207
316.00	0.1229
317.00	0.1248
318.00	0.1267
319.00	0.1285
320.00	0.1300
321.00	0.1317
322.00	0.1333
323.00	0.1351
324.00	0.1365
325.00	0.1381
326.00	0.1396
327.00	0.1411
328.00	0.1426
329.00	0.1443
330.00	0.1459
331.00	0.1472
332.00	0.1480
333.00	0.1496
334.00	0.1513
335.00	0.1531
336.00	0.1553
337.00	0.1578
338.00	0.1595
339.00	0.1612
340.00	0.1629
341.00	0.1644
342.00	0.1659
343.00	0.1676
344.00	0.1691
345.00	0.1706
346.00	0.1719
347.00	0.1732
348.00	0.1741
349.00	0.1750
350.00	0.1758
351.00	0.1766
352.00	0.1775
353.00	0.1782
354.00	0.1791
355.00	0.1797
356.00	0.1803
357.00	0.1808
358.00	0.1813
359.00	0.1815
360.00	0.1817
361.00	0.1818
362.00	0.1815
363.00	0.1820
364.00	0.1827
365.00	0.1835
366.00	0.1843
367.00	0.1856
368.00	0.1859
369.00	0.1864
370.00	0.1870
371.00	0.1883
372.00	0.1885
373.00	0.1889
374.00	0.1891
375.00	0.1890
376.00	0.1885
377.00	0.1889
378.00	0.1893
379.00	0.1896
380.00	0.1900
381.00	0.1904
382.00	0.1908
383.00	0.1917
384.00	0.1927
385.00	0.1938
386.00	0.1949
387.00	0.1961
388.00	0.1967
389.00	0.1972
390.00	0.1978
391.00	0.1984
392.00	0.1992
393.00	0.2001
394.00	0.2010
395.00	0.2017
396.00	0.2023
397.00	0.2026
398.00	0.2027
399.00	0.2031
400.00	0.2035
401.00	0.2042
402.00	0.2049
403.00	0.2060
404.00	0.2066
405.00	0.2074
406.00	0.2080
407.00	0.2087
408.00	0.2094
409.00	0.2102
410.00	0.2110
411.00	0.2118
412.00	0.2124
413.00	0.2131
414.00	0.2137
415.00	0.2142
416.00	0.2147
417.00	0.2151
418.00	0.2155
419.00	0.2155
420.00	0.2156
421.00	0.2155
422.00	0.2154
423.00	0.2150
424.00	0.2146
425.00	0.2141
426.00	0.2136
427.00	0.2132
428.00	0.2129
429.00	0.2126
430.00	0.2122
431.00	0.2119
432.00	0.2115
433.00	0.2112
434.00	0.2108
435.00	0.2105
436.00	0.2100
437.00	0.2094
438.00	0.2088
439.00	0.2082
440.00	0.2075
441.00	0.2068
442.00	0.2061
443.00	0.2055
444.00	0.2049
445.00	0.2043
446.00	0.2037
447.00	0.2031
448.00	0.2025
449.00	0.2020
450.00	0.2018
451.00	0.2016
452.00	0.2015
453.00	0.2016
454.00	0.2016
455.00	0.2017
456.00	0.2018
457.00	0.2019
458.00	0.2019
459.00	0.2020
460.00	0.2023
461.00	0.2025
462.00	0.2030
463.00	0.2032
464.00	0.2036
465.00	0.2037
466.00	0.2039
467.00	0.2040
468.00	0.2042
469.00	0.2042
470.00	0.2042
471.00	0.2045
472.00	0.2048
473.00	0.2051
474.00	0.2055
475.00	0.2061
476.00	0.2065
477.00	0.2070
478.00	0.2076
479.00	0.2081
480.00	0.2085
481.00	0.2090
482.00	0.2094
483.00	0.2099
484.00	0.2103
485.00	0.2105
486.00	0.2107
487.00	0.2108
488.00	0.2108
489.00	0.2108
490.00	0.2109
491.00	0.2110
492.00	0.2110
493.00	0.2112
494.00	0.2114
495.00	0.2115
496.00	0.2116
497.00	0.2116
498.00	0.2117
499.00	0.2119
500.00	0.2120
501.00	0.2122
502.00	0.2123
503.00	0.2123
504.00	0.2122
505.00	0.2122
506.00	0.2120
507.00	0.2119
508.00	0.2118
509.00	0.2117
510.00	0.2113
511.00	0.2111
512.00	0.2108
513.00	0.2105
514.00	0.2100
515.00	0.2095
516.00	0.2090
517.00	0.2086
518.00	0.2081
519.00	0.2075
520.00	0.2070
521.00	0.2067
522.00	0.2062
523.00	0.2057
524.00	0.2051
525.00	0.2044
526.00	0.2036
527.00	0.2028
528.00	0.2022
529.00	0.2020
530.00	0.2022
531.00	0.2014
532.00	0.2006
533.00	0.1999
534.00	0.1988
535.00	0.1975
536.00	0.1970
537.00	0.1964
538.00	0.1958
539.00	0.1953
540.00	0.1946
541.00	0.1938
542.00	0.1932
543.00	0.1926
544.00	0.1920
545.00	0.1912
546.00	0.1906
547.00	0.1901
548.00	0.1895
549.00	0.1887
550.00	0.1882
551.00	0.1877
552.00	0.1870
553.00	0.1864
554.00	0.1856
555.00	0.1850
556.00	0.1843
557.00	0.1837
558.00	0.1831
559.00	0.1826
560.00	0.1820
561.00	0.1813
562.00	0.1808
563.00	0.1802
564.00	0.1797
565.00	0.1791
566.00	0.1784
567.00	0.1777
568.00	0.1768
569.00	0.1759
570.00	0.1753
571.00	0.1747
572.00	0.1744
573.00	0.1740
574.00	0.1734
575.00	0.1725
576.00	0.1715
577.00	0.1702
578.00	0.1691
579.00	0.1683
580.00	0.1676
581.00	0.1668
582.00	0.1660
583.00	0.1652
584.00	0.1643
585.00	0.1634
586.00	0.1627
587.00	0.1620
588.00	0.1612
589.00	0.1604
590.00	0.1595
591.00	0.1587
592.00	0.1577
593.00	0.1567
594.00	0.1557
595.00	0.1549
596.00	0.1539
597.00	0.1530
598.00	0.1521
599.00	0.1513
600.00	0.1504
601.00	0.1495
602.00	0.1486
603.00	0.1476
604.00	0.1467
605.00	0.1458
606.00	0.1450
607.00	0.1442
608.00	0.1434
609.00	0.1427
610.00	0.1421
611.00	0.1415
612.00	0.1408
613.00	0.1400
614.00	0.1392
615.00	0.1388
616.00	0.1383
617.00	0.1378
618.00	0.1373
619.00	0.1367
620.00	0.1355
621.00	0.1347
622.00	0.1339
623.00	0.1334
624.00	0.1330
625.00	0.1325
626.00	0.1320
627.00	0.1316
628.00	0.1310
629.00	0.1306
630.00	0.1303
631.00	0.1300
632.00	0.1295
633.00	0.1290
634.00	0.1286
635.00	0.1282
636.00	0.1277
637.00	0.1275
638.00	0.1274
639.00	0.1272
640.00	0.1268
641.00	0.1266
642.00	0.1264
643.00	0.1262
644.00	0.1258
645.00	0.1255
646.00	0.1254
647.00	0.1253
648.00	0.1252
649.00	0.1254
650.00	0.1256
651.00	0.1257
652.00	0.1259
653.00	0.1261
654.00	0.1260
655.00	0.1260
656.00	0.1259
657.00	0.1258
658.00	0.1256
659.00	0.1255
660.00	0.1253
661.00	0.1251
662.00	0.1250
663.00	0.1249
664.00	0.1248
665.00	0.1249
666.00	0.1248
667.00	0.1247
668.00	0.1247
669.00	0.1248
670.00	0.1256
671.00	0.1261
672.00	0.1266
673.00	0.1271
674.00	0.1274
675.00	0.1270
676.00	0.1272
677.00	0.1272
678.00	0.1270
679.00	0.1271
680.00	0.1272
681.00	0.1275
682.00	0.1278
683.00	0.1281
684.00	0.1283
685.00	0.1285
686.00	0.1284
687.00	0.1286
688.00	0.1287
689.00	0.1290
690.00	0.1287
691.00	0.1292
692.00	0.1293
693.00	0.1293
694.00	0.1293
695.00	0.1298
696.00	0.1296
697.00	0.1295
698.00	0.1295
699.00	0.1296
700.00	0.1296
701.00	0.1300
702.00	0.1301
703.00	0.1305
704.00	0.1306
705.00	0.1307
706.00	0.1309
707.00	0.1310
708.00	0.1314
709.00	0.1316
710.00	0.1318
711.00	0.1317
712.00	0.1320
713.00	0.1317
714.00	0.1320
715.00	0.1322
716.00	0.1324
717.00	0.1323
718.00	0.1324
719.00	0.1324
720.00	0.1325
721.00	0.1325
722.00	0.1327
723.00	0.1327
724.00	0.1319
725.00	0.1320
726.00	0.1311
727.00	0.1312
728.00	0.1312
729.00	0.1319
730.00	0.1317
731.00	0.1326
732.00	0.1328
733.00	0.1335
734.00	0.1337
735.00	0.1338
736.00	0.1340
737.00	0.1341
738.00	0.1340
739.00	0.1343
740.00	0.1346
741.00	0.1350
742.00	0.1351
743.00	0.1353
744.00	0.1353
745.00	0.1357
746.00	0.1360
747.00	0.1359
748.00	0.1365
749.00	0.1367
750.00	0.1369
751.00	0.1372
752.00	0.1378
753.00	0.1377
754.00	0.1380
755.00	0.1381
756.00	0.1382
757.00	0.1382
758.00	0.1384
759.00	0.1386
760.00	0.1387
761.00	0.1389
762.00	0.1391
763.00	0.1395
764.00	0.1400
765.00	0.1402
766.00	0.1405
767.00	0.1408
768.00	0.1408
769.00	0.1405
770.00	0.1404
771.00	0.1402
772.00	0.1400
773.00	0.1399
774.00	0.1398
775.00	0.1396
776.00	0.1396
777.00	0.1393
778.00	0.1390
779.00	0.1386
780.00	0.1380
781.00	0.1372
782.00	0.1365
783.00	0.1360
784.00	0.1358
785.00	0.1360
786.00	0.1360
787.00	0.1357
788.00	0.1355
789.00	0.1351
790.00	0.1346
791.00	0.1340
792.00	0.1334
793.00	0.1328
794.00	0.1321
795.00	0.1310
796.00	0.1300
797.00	0.1285
798.00	0.1272
799.00	0.1260
800.00	0.1250
801.00	0.1241
802.00	0.1238
803.00	0.1229
804.00	0.1218
805.00	0.1208
806.00	0.1198
807.00	0.1191
808.00	0.1187
809.00	0.1182
810.00	0.1180
811.00	0.1180
812.00	0.1179
813.00	0.1175
814.00	0.1174
815.00	0.1170
816.00	0.1164
817.00	0.1159
818.00	0.1156
819.00	0.1151
820.00	0.1149
821.00	0.1149
822.00	0.1149
823.00	0.1148
824.00	0.1149
825.00	0.1153
826.00	0.1153
827.00	0.1154
828.00	0.1155
829.00	0.1156
830.00	0.1154
831.00	0.1158
832.00	0.1157
833.00	0.1159
834.00	0.1159
835.00	0.1158
836.00	0.1157
837.00	0.1159
838.00	0.1158
839.00	0.1159
840.00	0.1161
841.00	0.1164
842.00	0.1166
843.00	0.1169
844.00	0.1172
845.00	0.1175
846.00	0.1177
847.00	0.1178
848.00	0.1180
849.00	0.1181
850.00	0.1183
851.00	0.1183
852.00	0.1185
853.00	0.1187
854.00	0.1188
855.00	0.1190
856.00	0.1191
857.00	0.1190
858.00	0.1188
859.00	0.1186
860.00	0.1184
861.00	0.1183
862.00	0.1182
863.00	0.1183
864.00	0.1182
865.00	0.1180
866.00	0.1179
867.00	0.1178
868.00	0.1178
869.00	0.1177
870.00	0.1177
871.00	0.1175
872.00	0.1175
873.00	0.1173
874.00	0.1172
875.00	0.1171
876.00	0.1170
877.00	0.1166
878.00	0.1163
879.00	0.1159
880.00	0.1156
881.00	0.1152
882.00	0.1147
883.00	0.1140
884.00	0.1135
885.00	0.1127
886.00	0.1119
887.00	0.1115
888.00	0.1108
889.00	0.1102
890.00	0.1097
891.00	0.1089
892.00	0.1081
893.00	0.1076
894.00	0.1068
895.00	0.1060
896.00	0.1055
897.00	0.1049
898.00	0.1043
899.00	0.1037
900.00	0.1031
901.00	0.1024
902.00	0.1017
903.00	0.1011
904.00	0.1006
905.00	0.1001
906.00	0.0995
907.00	0.0991
908.00	0.0985
909.00	0.0979
910.00	0.0972
911.00	0.0968
912.00	0.0959
913.00	0.0953
914.00	0.0946
915.00	0.0942
916.00	0.0936
917.00	0.0933
918.00	0.0928
919.00	0.0924
920.00	0.0919
921.00	0.0915
922.00	0.0908
923.00	0.0902
924.00	0.0894
925.00	0.0887
926.00	0.0882
927.00	0.0878
928.00	0.0874
929.00	0.0871
930.00	0.0866
931.00	0.0860
932.00	0.0856
933.00	0.0852
934.00	0.0847
935.00	0.0845
936.00	0.0843
937.00	0.0838
938.00	0.0833
939.00	0.0828
940.00	0.0821
941.00	0.0814
942.00	0.0808
943.00	0.0803
944.00	0.0798
945.00	0.0793
946.00	0.0787
947.00	0.0784
948.00	0.0779
949.00	0.0775
950.00	0.0770
951.00	0.0767
952.00	0.0764
953.00	0.0759
954.00	0.0754
955.00	0.0748
956.00	0.0742
957.00	0.0737
958.00	0.0735
959.00	0.0732
960.00	0.0730
961.00	0.0726
962.00	0.0720
963.00	0.0714
964.00	0.0710
965.00	0.0705
966.00	0.0702
967.00	0.0696
968.00	0.0692
969.00	0.0688
970.00	0.0685
971.00	0.0681
972.00	0.0677
973.00	0.0673
974.00	0.0668
975.00	0.0662
976.00	0.0657
977.00	0.0653
978.00	0.0648
979.00	0.0643
980.00	0.0640
981.00	0.0636
982.00	0.0634
983.00	0.0630
984.00	0.0628
985.00	0.0623
986.00	0.0621
987.00	0.0616
988.00	0.0612
989.00	0.0608
990.00	0.0603
991.00	0.0598
992.00	0.0595
993.00	0.0592
994.00	0.0588
995.00	0.0586
996.00	0.0582
997.00	0.0578
998.00	0.0575
999.00	0.0570
1000.00	0.0564
1001.00	0.0560
1002.00	0.0556
1003.00	0.0551
1004.00	0.0548
1005.00	0.0545
1006.00	0.0542
1007.00	0.0539
1008.00	0.0537
1009.00	0.0534
1010.00	0.0529
1011.00	0.0524
1012.00	0.0519
1013.00	0.0516
1014.00	0.0511
1015.00	0.0508
1016.00	0.0504
1017.00	0.0502
1018.00	0.0498
1019.00	0.0496
1020.00	0.0495
1021.00	0.0493
1022.00	0.0489
1023.00	0.0486
1024.00	0.0482
1025.00	0.0477
1026.00	0.0473
1027.00	0.0470
1028.00	0.0467
1029.00	0.0464
1030.00	0.0461
1031.00	0.0462
1032.00	0.0460
1033.00	0.0455
1034.00	0.0453
1035.00	0.0450
1036.00	0.0444
1037.00	0.0441
1038.00	0.0439
1039.00	0.0436
1040.00	0.0433
1041.00	0.0432
1042.00	0.0430
1043.00	0.0428
1044.00	0.0425
1045.00	0.0422
1046.00	0.0420
1047.00	0.0416
1048.00	0.0412
1049.00	0.0410
1050.00	0.0407
1051.00	0.0403
1052.00	0.0401
1053.00	0.0401
1054.00	0.0399
1055.00	0.0399
1056.00	0.0395
1057.00	0.0393
1058.00	0.0395
1059.00	0.0394
1060.00	0.0390
1061.00	0.0386
1062.00	0.0385
1063.00	0.0378
1064.00	0.0376
1065.00	0.0375
1066.00	0.0374
1067.00	0.0374
1068.00	0.0372
1069.00	0.0369
1070.00	0.0367
1071.00	0.0365
1072.00	0.0360
1073.00	0.0356
1074.00	0.0355
1075.00	0.0352
1076.00	0.0353
1077.00	0.0352
1078.00	0.0353
1079.00	0.0351
1080.00	0.0350
1081.00	0.0349
1082.00	0.0347
1083.00	0.0346
1084.00	0.0344
1085.00	0.0342
1086.00	0.0340
1087.00	0.0340
1088.00	0.0337
1089.00	0.0336
1090.00	0.0336
1091.00	0.0331
1092.00	0.0327
1093.00	0.0327
1094.00	0.0324
1095.00	0.0321
1096.00	0.0324
1097.00	0.0326
1098.00	0.0326
1099.00	0.0326
1100.00	0.0326
1101.00	0.0323
1102.00	0.0322
1103.00	0.0321
1104.00	0.0317
1105.00	0.0316
1106.00	0.0314
1107.00	0.0312
1108.00	0.0311
1109.00	0.0312
1110.00	0.0310
1111.00	0.0310
1112.00	0.0309
1113.00	0.0308
1114.00	0.0308
1115.00	0.0306
1116.00	0.0306
1117.00	0.0304
1118.00	0.0302
1119.00	0.0302
1120.00	0.0303
1121.00	0.0303
1122.00	0.0306
1123.00	0.0305
1124.00	0.0303
1125.00	0.0303
1126.00	0.0301
1127.00	0.0298
1128.00	0.0297
1129.00	0.0296
1130.00	0.0294
1131.00	0.0292
1132.00	0.0292
1133.00	0.0292
1134.00	0.0294
1135.00	0.0293
1136.00	0.0294
1137.00	0.0294
1138.00	0.0294
1139.00	0.0292
1140.00	0.0292
1141.00	0.0290
1142.00	0.0287
1143.00	0.0288
1144.00	0.0289
1145.00	0.0288
1146.00	0.0288
1147.00	0.0290
1148.00	0.0290
1149.00	0.0288
1150.00	0.0291
1151.00	0.0294
1152.00	0.0294
1153.00	0.0291
1154.00	0.0290
1155.00	0.0288
1156.00	0.0285
1157.00	0.0287
1158.00	0.0290
1159.00	0.0291
1160.00	0.0291
1161.00	0.0289
1162.00	0.0286
1163.00	0.0286
1164.00	0.0285
1165.00	0.0283
1166.00	0.0283
1167.00	0.0284
1168.00	0.0284
1169.00	0.0286
1170.00	0.0289
1171.00	0.0291
1172.00	0.0290
1173.00	0.0290
1174.00	0.0287
1175.00	0.0286
1176.00	0.0285
1177.00	0.0285
1178.00	0.0284
1179.00	0.0285
1180.00	0.0285
1181.00	0.0286
1182.00	0.0289
1183.00	0.0288
1184.00	0.0286
1185.00	0.0285
1186.00	0.0285
1187.00	0.0281
1188.00	0.0282
1189.00	0.0284
1190.00	0.0285
1191.00	0.0287
1192.00	0.0289
1193.00	0.0289
1194.00	0.0292
1195.00	0.0293
1196.00	0.0291
1197.00	0.0292
1198.00	0.0290
1199.00	0.0287
1200.00	0.0286
1201.00	0.0285
1202.00	0.0285
1203.00	0.0289
1204.00	0.0292
1205.00	0.0295
1206.00	0.0296
1207.00	0.0295
1208.00	0.0293
1209.00	0.0291
1210.00	0.0289
1211.00	0.0289
1212.00	0.0290
1213.00	0.0291
1214.00	0.0292
1215.00	0.0292
1216.00	0.0294
1217.00	0.0294
1218.00	0.0291
1219.00	0.0290
1220.00	0.0289
1221.00	0.0288
1222.00	0.0289
1223.00	0.0292
1224.00	0.0293
1225.00	0.0295
1226.00	0.0296
1227.00	0.0296
1228.00	0.0295
1229.00	0.0295
1230.00	0.0294
1231.00	0.0293
1232.00	0.0293
1233.00	0.0294
1234.00	0.0294
1235.00	0.0296
1236.00	0.0298
1237.00	0.0296
1238.00	0.0297
1239.00	0.0298
1240.00	0.0298
1241.00	0.0299
1242.00	0.0298
1243.00	0.0299
1244.00	0.0301
1245.00	0.0298
1246.00	0.0293
1247.00	0.0294
1248.00	0.0293
1249.00	0.0293
1250.00	0.0295
1251.00	0.0302
1252.00	0.0302
1253.00	0.0300
1254.00	0.0301
1255.00	0.0301
1256.00	0.0300
1257.00	0.0302
1258.00	0.0304
1259.00	0.0306
1260.00	0.0307
1261.00	0.0310
1262.00	0.0311
1263.00	0.0312
1264.00	0.0311
1265.00	0.0311
1266.00	0.0312
1267.00	0.0311
1268.00	0.0314
1269.00	0.0314
1270.00	0.0315
1271.00	0.0315
1272.00	0.0315
1273.00	0.0313
1274.00	0.0314
1275.00	0.0315
1276.00	0.0311
1277.00	0.0308
1278.00	0.0309
1279.00	0.0310
1280.00	0.0310
1281.00	0.0315
1282.00	0.0320
1283.00	0.0322
1284.00	0.0323
1285.00	0.0322
1286.00	0.0320
1287.00	0.0320
1288.00	0.0318
1289.00	0.0317
1290.00	0.0319
1291.00	0.0321
1292.00	0.0322
1293.00	0.0323
1294.00	0.0324
1295.00	0.0324
1296.00	0.0326
1297.00	0.0323
1298.00	0.0325
1299.00	0.0325
1300.00	0.0323
1301.00	0.0324
1302.00	0.0327
1303.00	0.0327
1304.00	0.0327
1305.00	0.0330
1306.00	0.0328
1307.00	0.0327
1308.00	0.0326
1309.00	0.0328
1310.00	0.0329
1311.00	0.0330
1312.00	0.0334
1313.00	0.0336
1314.00	0.0335
1315.00	0.0336
1316.00	0.0338
1317.00	0.0336
1318.00	0.0337
1319.00	0.0339
1320.00	0.0338
1321.00	0.0338
1322.00	0.0338
1323.00	0.0339
1324.00	0.0338
1325.00	0.0340
1326.00	0.0342
1327.00	0.0343
1328.00	0.0345
1329.00	0.0344
1330.00	0.0345
1331.00	0.0346
1332.00	0.0346
1333.00	0.0345
1334.00	0.0349
1335.00	0.0348
1336.00	0.0350
1337.00	0.0353
1338.00	0.0351
1339.00	0.0351
1340.00	0.0352
1341.00	0.0352
1342.00	0.0351
1343.00	0.0353
1344.00	0.0354
1345.00	0.0356
1346.00	0.0356
1347.00	0.0359
1348.00	0.0360
1349.00	0.0360
1350.00	0.0358
1351.00	0.0359
1352.00	0.0357
1353.00	0.0358
1354.00	0.0361
1355.00	0.0363
1356.00	0.0366
1357.00	0.0369
1358.00	0.0372
1359.00	0.0373
1360.00	0.0375
1361.00	0.0375
1362.00	0.0377
1363.00	0.0377
1364.00	0.0376
1365.00	0.0378
1366.00	0.0376
1367.00	0.0378
1368.00	0.0379
1369.00	0.0382
1370.00	0.0381
1371.00	0.0385
1372.00	0.0385
1373.00	0.0386
1374.00	0.0387
1375.00	0.0389
1376.00	0.0390
1377.00	0.0390
1378.00	0.0393
1379.00	0.0392
1380.00	0.0393
1381.00	0.0395
1382.00	0.0396
1383.00	0.0397
1384.00	0.0399
1385.00	0.0400
1386.00	0.0399
1387.00	0.0401
1388.00	0.0399
1389.00	0.0403
1390.00	0.0403
1391.00	0.0406
1392.00	0.0410
1393.00	0.0411
1394.00	0.0410
1395.00	0.0411
1396.00	0.0412
1397.00	0.0409
1398.00	0.0409
1399.00	0.0411
1400.00	0.0414
1401.00	0.0415
1402.00	0.0418
1403.00	0.0422
1404.00	0.0423
1405.00	0.0423
1406.00	0.0424
1407.00	0.0426
1408.00	0.0427
1409.00	0.0429
1410.00	0.0427
1411.00	0.0428
1412.00	0.0429
1413.00	0.0430
1414.00	0.0432
1415.00	0.0435
1416.00	0.0437
1417.00	0.0440
1418.00	0.0441
1419.00	0.0441
1420.00	0.0443
1421.00	0.0443
1422.00	0.0444
1423.00	0.0446
1424.00	0.0448
1425.00	0.0448
1426.00	0.0451
1427.00	0.0453
1428.00	0.0447
1429.00	0.0443
1430.00	0.0447
1431.00	0.0448
1432.00	0.0449
1433.00	0.0454
1434.00	0.0459
1435.00	0.0459
1436.00	0.0458
1437.00	0.0459
1438.00	0.0461
1439.00	0.0461
1440.00	0.0456
1441.00	0.0457
1442.00	0.0457
1443.00	0.0457
1444.00	0.0460
1445.00	0.0466
1446.00	0.0467
1447.00	0.0469
1448.00	0.0471
1449.00	0.0473
1450.00	0.0475
1451.00	0.0478
1452.00	0.0478
1453.00	0.0479
1454.00	0.0480
1455.00	0.0480
1456.00	0.0479
1457.00	0.0481
1458.00	0.0483
1459.00	0.0476
1460.00	0.0474
1461.00	0.0476
1462.00	0.0475
1463.00	0.0476
1464.00	0.0485
1465.00	0.0488
1466.00	0.0490
1467.00	0.0491
1468.00	0.0488
1469.00	0.0486
1470.00	0.0488
1471.00	0.0488
1472.00	0.0491
1473.00	0.0493
1474.00	0.0498
1475.00	0.0499
1476.00	0.0500
1477.00	0.0500
1478.00	0.0503
1479.00	0.0505
1480.00	0.0506
1481.00	0.0509
1482.00	0.0512
1483.00	0.0515
1484.00	0.0515
1485.00	0.0518
1486.00	0.0515
1487.00	0.0513
1488.00	0.0518
1489.00	0.0518
1490.00	0.0515
1491.00	0.0521
1492.00	0.0523
1493.00	0.0521
1494.00	0.0526
1495.00	0.0531
1496.00	0.0533
1497.00	0.0537
1498.00	0.0536
1499.00	0.0536
1500.00	0.0537
1501.00	0.0538
1502.00	0.0539
1503.00	0.0541
1504.00	0.0541
1505.00	0.0546
1506.00	0.0549
1507.00	0.0551
1508.00	0.0555
1509.00	0.0558
1510.00	0.0555
1511.00	0.0557
1512.00	0.0556
1513.00	0.0555
1514.00	0.0559
1515.00	0.0560
1516.00	0.0558
1517.00	0.0562
1518.00	0.0564
1519.00	0.0567
1520.00	0.0569
1521.00	0.0571
1522.00	0.0573
1523.00	0.0575
1524.00	0.0574
1525.00	0.0577
1526.00	0.0579
1527.00	0.0579
1528.00	0.0580
1529.00	0.0580
1530.00	0.0582
1531.00	0.0583
1532.00	0.0585
1533.00	0.0587
1534.00	0.0590
1535.00	0.0591
1536.00	0.0595
1537.00	0.0596
1538.00	0.0596
1539.00	0.0595
1540.00	0.0596
1541.00	0.0597
1542.00	0.0598
1543.00	0.0600
1544.00	0.0603
1545.00	0.0606
1546.00	0.0606
1547.00	0.0607
1548.00	0.0610
1549.00	0.0611
1550.00	0.0610
1551.00	0.0611
1552.00	0.0614
1553.00	0.0615
1554.00	0.0617
1555.00	0.0619
1556.00	0.0622
1557.00	0.0625
1558.00	0.0625
1559.00	0.0626
1560.00	0.0631
1561.00	0.0628
1562.00	0.0627
1563.00	0.0635
1564.00	0.0637
1565.00	0.0634
1566.00	0.0639
1567.00	0.0641
1568.00	0.0638
1569.00	0.0640
1570.00	0.0643
1571.00	0.0646
1572.00	0.0646
1573.00	0.0647
1574.00	0.0650
1575.00	0.0650
1576.00	0.0650
1577.00	0.0652
1578.00	0.0656
1579.00	0.0656
1580.00	0.0659
1581.00	0.0659
1582.00	0.0658
1583.00	0.0660
1584.00	0.0660
1585.00	0.0661
1586.00	0.0665
1587.00	0.0669
1588.00	0.0669
1589.00	0.0671
